File Name: 11gait.log
Channel 6: 'Vasto Medial', 16848 values, engineering units: mV, no filters.
Channel 8: 'Flexo-Extension', 16848 values, engineering units: deg, no filters.
0.000700  61.000000
-0.004600  61.300000
0.004500  61.300000
0.012700  61.200000
0.021700  61.400000
0.033000  61.300000
0.044200  61.400000
0.057000  61.200000
0.069700  61.400000
0.078700  61.300000
0.083200  61.500000
0.081700  61.400000
0.076500  61.500000
0.071200  61.500000
0.067500  61.400000
0.060700  61.500000
0.053200  61.600000
0.045700  61.600000
0.038200  61.500000
0.032200  61.600000
0.027700  61.700000
0.020200  61.800000
0.009000  61.700000
0.000000  61.800000
-0.008300  62.000000
-0.017300  61.700000
-0.023300  61.900000
-0.028500  61.700000
-0.035300  61.800000
-0.039000  62.000000
-0.036800  61.700000
-0.036100  62.100000
-0.031500  61.800000
-0.021000  61.900000
-0.008300  62.100000
0.003700  62.100000
0.018000  62.100000
0.034500  62.300000
0.048000  62.100000
0.055500  62.100000
0.056200  62.300000
0.055500  62.300000
0.051700  62.200000
0.046500  62.400000
0.040500  62.300000
0.035200  62.300000
0.031500  62.400000
0.026200  62.500000
0.020200  62.500000
0.014200  62.500000
0.012000  62.500000
0.006000  62.600000
0.003000  62.700000
0.000000  62.700000
-0.004600  62.800000
-0.009800  62.500000
-0.014300  62.800000
-0.018100  62.600000
-0.021000  63.000000
-0.023300  63.000000
-0.021800  62.800000
-0.023300  63.100000
-0.023300  63.100000
-0.020300  63.000000
-0.018100  63.100000
-0.015000  63.100000
-0.014300  63.200000
-0.015800  63.400000
-0.014300  63.400000
-0.012800  63.400000
-0.015000  63.600000
-0.018100  63.400000
-0.017300  63.500000
-0.020300  63.800000
-0.024000  63.700000
-0.029300  63.800000
-0.033000  63.800000
-0.036800  63.800000
-0.038300  64.000000
-0.043600  64.000000
-0.046500  64.200000
-0.049500  64.000000
-0.048000  64.200000
-0.045000  64.100000
-0.039800  64.300000
-0.033000  64.300000
-0.027800  64.400000
-0.024000  64.500000
-0.019500  64.400000
-0.012800  64.800000
-0.006000  64.600000
-0.001500  64.800000
0.003000  64.900000
0.006700  64.900000
0.009000  65.000000
0.010500  65.100000
0.012000  65.000000
0.015700  65.200000
0.016500  65.200000
0.016500  65.500000
0.017200  65.400000
0.016500  65.300000
0.017200  65.500000
0.015700  65.700000
0.013500  65.700000
0.011200  65.700000
0.010500  66.000000
0.007500  65.700000
0.005200  66.000000
0.004500  66.100000
0.004500  66.000000
0.004500  66.200000
0.003700  66.200000
0.003700  66.400000
0.003700  66.300000
0.004500  66.400000
0.006700  66.600000
0.006700  66.800000
0.010500  66.700000
0.012000  66.800000
0.011200  66.800000
0.012700  66.900000
0.015000  67.000000
0.015000  67.100000
0.016500  67.200000
0.015700  67.300000
0.015000  67.400000
0.015000  67.400000
0.013500  67.700000
0.015700  67.700000
0.014200  67.800000
0.012700  67.900000
0.012700  68.100000
0.010500  68.300000
0.008200  68.300000
0.006700  68.300000
0.004500  68.500000
0.000000  68.600000
-0.003000  68.600000
-0.006000  68.800000
-0.008300  68.800000
-0.011300  69.100000
-0.012800  69.100000
-0.014300  69.100000
-0.016500  69.400000
-0.016500  69.300000
-0.018100  69.400000
-0.019500  69.400000
-0.019500  69.600000
-0.020300  69.600000
-0.021000  69.700000
-0.020300  69.400000
-0.019500  69.400000
-0.020300  69.400000
-0.018100  69.300000
-0.017300  69.300000
-0.018100  69.700000
-0.016500  69.500000
-0.016500  69.800000
-0.015800  69.600000
-0.010500  69.900000
-0.008300  69.900000
-0.006800  70.200000
-0.002300  70.200000
0.000000  70.100000
0.000700  70.200000
0.004500  70.300000
0.003700  70.500000
0.005200  70.300000
0.005200  70.700000
0.003700  70.600000
0.003000  70.800000
0.003000  70.800000
-0.000800  70.600000
-0.004600  71.100000
-0.006800  70.900000
-0.006800  71.000000
-0.004600  71.300000
-0.003800  71.300000
-0.005300  71.400000
-0.006000  71.200000
-0.006000  71.300000
-0.005300  71.400000
-0.003000  71.500000
-0.000800  71.500000
0.001500  71.700000
0.005200  71.600000
0.006700  71.500000
0.009700  71.800000
0.012700  71.500000
0.014200  71.900000
0.015700  71.800000
0.018000  71.800000
0.018700  72.000000
0.020200  71.900000
0.020200  72.000000
0.019500  72.000000
0.015700  72.100000
0.012700  72.200000
0.011200  72.400000
0.009000  72.200000
0.008200  72.300000
0.005200  72.400000
0.004500  72.300000
0.005200  72.500000
0.004500  72.300000
0.002200  72.500000
-0.001500  72.600000
-0.000800  72.800000
0.000700  72.800000
-0.001500  72.800000
-0.000800  72.800000
0.000700  72.800000
0.001500  73.000000
0.002200  72.900000
0.003000  73.200000
0.006000  73.100000
0.006700  73.100000
0.006700  73.300000
0.008200  73.200000
0.010500  73.300000
0.010500  73.100000
0.007500  73.300000
0.006000  73.400000
0.003700  73.400000
0.003000  73.400000
-0.001500  73.400000
-0.004600  73.400000
-0.005300  73.300000
-0.003000  73.400000
-0.001500  73.300000
-0.000800  73.300000
0.003000  73.400000
0.004500  73.300000
0.004500  73.500000
0.004500  73.400000
0.002200  73.500000
-0.000800  73.300000
-0.001500  73.300000
-0.006800  73.300000
-0.010500  73.300000
-0.015000  73.200000
-0.021800  73.100000
-0.026300  73.100000
-0.030800  73.000000
-0.033800  72.900000
-0.036800  72.800000
-0.036800  72.700000
-0.034600  72.800000
-0.033000  72.700000
-0.029300  72.800000
-0.026300  72.600000
-0.023300  72.800000
-0.020300  72.600000
-0.016500  72.500000
-0.014300  72.600000
-0.010500  72.700000
-0.006000  72.600000
-0.003800  72.600000
-0.001500  72.700000
0.002200  72.800000
0.004500  72.600000
0.006700  72.800000
0.008200  72.700000
0.008200  72.900000
0.006700  72.800000
0.006000  72.900000
0.004500  72.800000
-0.000800  72.800000
-0.004600  72.700000
-0.005300  72.800000
-0.009100  72.600000
-0.012800  72.800000
-0.018100  72.600000
-0.027800  72.600000
-0.037500  72.600000
-0.044300  72.500000
-0.043600  72.600000
-0.039000  72.500000
-0.031500  72.500000
-0.024000  72.600000
-0.015800  72.500000
-0.006000  72.700000
0.004500  72.700000
0.014200  72.800000
0.021000  72.800000
0.025500  72.800000
0.028500  72.800000
0.029200  72.800000
0.029200  72.700000
0.026200  72.800000
0.023200  72.700000
0.019500  72.800000
0.012700  72.900000
0.004500  73.000000
0.000000  72.800000
-0.003800  73.100000
-0.005300  72.900000
-0.005300  73.000000
-0.004600  73.000000
-0.000800  72.900000
0.000700  72.900000
0.004500  73.100000
0.009700  72.800000
0.012000  73.100000
0.015700  73.000000
0.017200  73.000000
0.019500  72.800000
0.018000  73.000000
0.019500  73.000000
0.018700  73.300000
0.015700  72.900000
0.014200  73.200000
0.011200  73.100000
0.011200  73.000000
0.006700  73.100000
0.002200  73.100000
-0.001500  73.100000
-0.007500  73.000000
-0.010500  72.900000
-0.012800  73.100000
-0.014300  73.100000
-0.014300  73.100000
-0.014300  73.000000
-0.014300  73.100000
-0.012800  73.000000
-0.012800  73.000000
-0.012800  72.800000
-0.012000  73.000000
-0.012800  72.800000
-0.012000  72.800000
-0.012800  72.900000
-0.012000  72.800000
-0.012000  72.800000
-0.009100  72.900000
-0.007500  72.700000
-0.007500  72.800000
-0.005300  72.800000
-0.004600  72.900000
-0.003000  72.700000
-0.001500  72.800000
0.001500  72.900000
0.000700  72.800000
-0.000800  72.800000
-0.001500  72.700000
-0.000800  72.800000
-0.002300  72.700000
-0.004600  72.700000
-0.005300  72.700000
-0.005300  72.500000
-0.003000  72.700000
-0.000800  72.500000
0.002200  72.600000
0.004500  72.700000
0.006700  72.500000
0.012000  72.600000
0.018000  72.400000
0.021700  72.600000
0.025500  72.400000
0.027000  72.500000
0.029200  72.600000
0.030000  72.600000
0.029200  72.600000
0.029200  72.500000
0.027000  72.600000
0.026200  72.400000
0.024000  72.300000
0.024000  72.400000
0.024000  72.200000
0.023200  72.400000
0.022500  72.200000
0.021000  72.400000
0.019500  72.300000
0.020200  72.300000
0.020200  72.100000
0.017200  72.300000
0.017200  72.300000
0.018000  72.300000
0.017200  72.200000
0.016500  72.000000
0.016500  72.200000
0.015700  72.200000
0.015700  72.000000
0.018000  72.100000
0.021000  72.000000
0.024700  72.300000
0.027000  72.000000
0.027700  72.100000
0.027700  72.300000
0.028500  72.100000
0.026200  72.000000
0.024000  72.200000
0.021000  72.000000
0.016500  72.000000
0.011200  72.100000
0.007500  71.900000
0.004500  72.000000
0.000000  72.000000
-0.003000  71.900000
-0.005300  72.000000
-0.008300  71.900000
-0.010500  71.800000
-0.010500  72.000000
-0.012000  71.900000
-0.011300  71.900000
-0.010500  72.000000
-0.010500  71.800000
-0.009100  71.800000
-0.007500  71.800000
-0.005300  72.000000
-0.003800  72.000000
-0.003800  71.800000
-0.003000  71.900000
-0.002300  71.900000
-0.001500  72.000000
-0.000800  72.000000
-0.001500  71.900000
-0.000800  72.000000
-0.001500  71.900000
-0.003000  72.000000
-0.001500  72.100000
-0.001500  72.000000
-0.001500  71.800000
0.000700  72.000000
0.000000  72.000000
-0.000800  71.700000
-0.001500  71.900000
-0.004600  71.800000
-0.005300  71.900000
-0.008300  71.800000
-0.010500  71.700000
-0.012000  71.800000
-0.014300  71.800000
-0.018100  71.800000
-0.019500  71.800000
-0.022500  71.800000
-0.024000  71.700000
-0.025600  71.700000
-0.027800  71.800000
-0.027000  71.700000
-0.027800  71.900000
-0.030800  71.600000
-0.030000  72.000000
-0.028500  71.700000
-0.029300  71.700000
-0.030800  71.800000
-0.030800  71.500000
-0.029300  71.800000
-0.025600  71.700000
-0.025600  71.700000
-0.025600  71.900000
-0.021800  71.800000
-0.021000  71.700000
-0.019500  71.800000
-0.018100  71.700000
-0.018100  71.700000
-0.016500  71.800000
-0.016500  71.600000
-0.015800  71.600000
-0.015800  71.600000
-0.012800  71.600000
-0.011300  71.700000
-0.012000  71.500000
-0.012800  71.600000
-0.012800  71.600000
-0.012800  71.500000
-0.012000  71.900000
-0.010500  71.500000
-0.010500  71.500000
-0.010500  71.600000
-0.008300  71.600000
-0.006800  71.400000
-0.006800  71.600000
-0.005300  71.600000
-0.004600  71.500000
-0.002300  71.800000
-0.001500  71.500000
-0.000800  71.800000
0.000700  71.500000
0.002200  71.700000
0.005200  71.500000
0.006700  71.600000
0.007500  71.600000
0.009700  71.500000
0.012000  71.500000
0.012700  71.600000
0.012700  71.500000
0.015000  71.400000
0.016500  71.600000
0.015700  71.600000
0.016500  71.400000
0.016500  71.600000
0.018000  71.500000
0.018700  71.500000
0.015700  71.500000
0.013500  71.400000
0.013500  71.500000
0.012000  71.400000
0.011200  71.400000
0.013500  71.400000
0.012700  71.400000
0.010500  71.200000
0.012000  71.500000
0.010500  71.300000
0.010500  71.400000
0.012700  71.500000
0.012700  71.200000
0.012700  71.500000
0.013500  71.200000
0.015000  71.400000
0.014200  71.400000
0.015700  71.400000
0.017200  71.400000
0.016500  71.400000
0.019500  71.400000
0.019500  71.400000
0.016500  71.500000
0.016500  71.500000
0.015000  71.500000
0.012700  71.500000
0.012000  71.400000
0.012000  71.600000
0.009700  71.300000
0.008200  71.500000
0.008200  71.500000
0.006700  71.400000
0.006700  71.400000
0.006000  71.400000
0.005200  71.500000
0.003000  71.500000
0.003700  71.200000
0.001500  71.400000
0.000700  71.400000
-0.000800  71.500000
-0.000800  71.400000
-0.002300  71.500000
-0.005300  71.400000
-0.004600  71.500000
-0.004600  71.400000
-0.006800  71.300000
-0.006800  71.400000
-0.008300  71.400000
-0.007500  71.400000
-0.008300  71.400000
-0.009100  71.300000
-0.007500  71.500000
-0.006800  71.200000
-0.006800  71.500000
-0.006000  71.500000
-0.008300  71.400000
-0.004600  71.400000
-0.004600  71.500000
-0.005300  71.300000
-0.006800  71.400000
-0.006800  71.200000
-0.007500  71.300000
-0.009100  71.400000
-0.008300  71.200000
-0.009100  71.400000
-0.009100  71.400000
-0.009800  71.100000
-0.009800  71.500000
-0.009100  71.300000
-0.009100  71.400000
-0.010500  71.400000
-0.012800  71.400000
-0.014300  71.500000
-0.014300  71.400000
-0.013500  71.200000
-0.013500  71.500000
-0.014300  71.200000
-0.014300  71.300000
-0.012000  71.400000
-0.012000  71.300000
-0.012000  71.400000
-0.010500  71.300000
-0.009800  71.200000
-0.009800  71.400000
-0.009800  71.400000
-0.009100  71.400000
-0.009100  71.200000
-0.008300  71.300000
-0.006800  71.300000
-0.006800  71.400000
-0.005300  71.300000
-0.002300  71.400000
-0.000800  71.500000
-0.000800  71.200000
-0.001500  71.400000
-0.003000  71.300000
-0.005300  71.200000
-0.007500  71.400000
-0.008300  71.300000
-0.008300  71.400000
-0.006800  71.200000
-0.010500  71.400000
-0.012000  71.400000
-0.009800  71.300000
-0.008300  71.300000
-0.005300  71.400000
-0.002300  71.400000
0.000700  71.400000
0.006000  71.500000
0.010500  71.400000
0.014200  71.500000
0.016500  71.500000
0.019500  71.100000
0.021700  71.500000
0.022500  71.400000
0.023200  71.400000
0.023200  71.500000
0.022500  71.200000
0.021000  71.400000
0.020200  71.500000
0.016500  71.400000
0.012700  71.500000
0.012000  71.400000
0.009000  71.400000
0.006700  71.600000
0.003000  71.400000
0.003000  71.400000
0.001500  71.600000
0.000700  71.500000
0.000700  71.700000
0.000700  71.500000
0.000000  71.400000
-0.000800  71.600000
-0.002300  71.300000
-0.001500  71.500000
0.000700  71.500000
0.003000  71.500000
0.004500  71.400000
0.006000  71.500000
0.006700  71.500000
0.007500  71.500000
0.008200  71.500000
0.009000  71.500000
0.009700  71.700000
0.010500  71.400000
0.012700  71.400000
0.012700  71.600000
0.012000  71.500000
0.012000  71.600000
0.011200  71.600000
0.010500  71.600000
0.008200  71.400000
0.006700  71.700000
0.008200  71.600000
0.007500  71.600000
0.006000  71.500000
0.004500  71.600000
0.002200  71.500000
0.002200  71.400000
0.000700  71.700000
0.001500  71.500000
0.002200  71.600000
0.002200  71.700000
0.002200  71.500000
0.003000  71.500000
0.000700  71.600000
0.000700  71.600000
-0.000800  71.500000
-0.001500  71.600000
-0.000800  71.700000
0.001500  71.500000
0.001500  71.500000
0.000700  71.500000
-0.000800  71.600000
-0.001500  71.500000
-0.000800  71.700000
-0.000800  71.600000
0.000700  71.500000
0.000000  71.700000
0.001500  71.400000
0.001500  71.700000
-0.001500  71.600000
-0.000800  71.500000
-0.003800  71.600000
-0.005300  71.500000
-0.006800  71.500000
-0.008300  71.500000
-0.009100  71.600000
-0.012800  71.400000
-0.013500  71.700000
-0.015000  71.400000
-0.015000  71.500000
-0.012800  71.600000
-0.014300  71.400000
-0.012800  71.700000
-0.014300  71.400000
-0.015800  71.600000
-0.017300  71.700000
-0.018800  71.500000
-0.016500  71.500000
-0.016500  71.500000
-0.018100  71.500000
-0.015800  71.400000
-0.012000  71.700000
-0.010500  71.400000
-0.007500  71.700000
-0.003800  71.500000
-0.001500  71.500000
-0.001500  71.700000
0.000700  71.500000
0.003000  71.600000
0.006700  71.600000
0.009000  71.500000
0.011200  71.500000
0.012700  71.500000
0.015000  71.500000
0.014200  71.500000
0.014200  71.700000
0.016500  71.400000
0.014200  71.700000
0.014200  71.500000
0.012000  71.700000
0.009000  71.700000
0.006000  71.500000
0.003700  71.700000
-0.000800  71.500000
-0.002300  71.600000
-0.000800  71.700000
-0.004600  71.500000
-0.006000  71.700000
-0.007500  71.400000
-0.008300  71.500000
-0.008300  71.400000
-0.009800  71.500000
-0.008300  71.300000
-0.007500  71.600000
-0.006800  71.500000
-0.005300  71.600000
-0.003000  71.500000
-0.003000  71.400000
-0.003800  71.500000
-0.004600  71.600000
-0.005300  71.500000
-0.006000  71.500000
-0.006800  71.500000
-0.005300  71.500000
-0.006000  71.400000
-0.005300  71.500000
-0.007500  71.600000
-0.007500  71.500000
-0.006800  71.600000
-0.005300  71.500000
-0.005300  71.500000
-0.006800  71.400000
-0.005300  71.500000
-0.004600  71.500000
-0.003000  71.600000
0.003000  71.500000
0.006000  71.500000
0.008200  71.600000
0.012000  71.500000
0.012000  71.400000
0.012000  71.700000
0.012000  71.500000
0.009000  71.500000
0.004500  71.500000
0.000000  71.600000
-0.003000  71.600000
-0.006000  71.500000
-0.006000  71.400000
-0.004600  71.600000
-0.002300  71.500000
-0.000800  71.500000
-0.000800  71.700000
0.000700  71.500000
0.000700  71.600000
0.003700  71.700000
0.008200  71.500000
0.011200  71.600000
0.015000  71.500000
0.017200  71.700000
0.019500  71.500000
0.021700  71.500000
0.021700  71.400000
0.019500  71.600000
0.017200  71.700000
0.015700  71.600000
0.011200  71.700000
0.007500  71.500000
0.003000  71.700000
-0.001500  71.600000
-0.008300  71.400000
-0.012000  71.500000
-0.013500  71.500000
-0.012000  71.600000
-0.012800  71.500000
-0.016500  71.600000
-0.014300  71.600000
-0.012000  71.600000
-0.012800  71.400000
-0.010500  71.600000
-0.008300  71.500000
-0.006800  71.500000
-0.004600  71.600000
-0.000800  71.500000
0.000700  71.700000
0.004500  71.700000
0.004500  71.600000
0.004500  71.800000
0.003000  71.500000
0.001500  71.700000
0.004500  71.500000
0.005200  71.800000
0.004500  71.500000
0.004500  71.700000
0.003700  71.500000
0.002200  71.700000
0.000700  71.600000
0.002200  71.600000
0.003000  71.600000
0.001500  71.700000
0.001500  71.600000
-0.000800  71.700000
-0.000800  71.500000
-0.001500  71.900000
-0.003000  71.600000
-0.003000  71.600000
-0.004600  71.700000
-0.002300  71.600000
-0.000800  71.700000
0.000700  71.600000
0.000700  71.500000
0.003000  71.700000
0.003700  71.700000
0.002200  71.500000
0.002200  71.800000
0.003000  71.600000
0.004500  71.600000
0.005200  71.600000
0.003000  71.500000
0.001500  71.700000
0.003000  71.600000
0.002200  71.600000
0.004500  71.600000
0.006000  71.600000
0.008200  71.600000
0.010500  71.600000
0.008200  71.500000
0.008200  71.500000
0.006000  71.700000
0.004500  71.600000
0.004500  71.700000
0.003000  71.600000
0.003700  71.400000
0.003700  71.900000
-0.000800  71.500000
-0.003800  71.500000
-0.004600  71.700000
-0.003000  71.500000
-0.000800  71.500000
-0.002300  71.500000
-0.006000  71.500000
-0.009100  71.500000
-0.009100  71.500000
-0.009100  71.500000
-0.009100  71.700000
-0.009100  71.500000
-0.010500  71.500000
-0.009100  71.600000
-0.009800  71.300000
-0.008300  71.600000
-0.009100  71.300000
-0.009800  71.400000
-0.009800  71.700000
-0.009100  71.400000
-0.011300  71.500000
-0.011300  71.500000
-0.008300  71.500000
-0.006800  71.500000
-0.005300  71.500000
-0.003000  71.400000
-0.001500  71.600000
-0.005300  71.500000
-0.005300  71.400000
-0.003000  71.700000
-0.003000  71.500000
-0.000800  71.500000
-0.002300  71.400000
-0.003800  71.500000
-0.004600  71.500000
-0.004600  71.400000
-0.004600  71.700000
-0.005300  71.500000
-0.008300  71.400000
-0.009100  71.600000
-0.008300  71.500000
-0.007500  71.300000
-0.008300  71.400000
-0.007500  71.400000
-0.006000  71.300000
-0.000800  71.500000
0.003700  71.400000
0.006000  71.500000
0.008200  71.600000
0.011200  71.400000
0.012000  71.400000
0.012700  71.400000
0.014200  71.400000
0.014200  71.300000
0.012700  71.500000
0.011200  71.400000
0.011200  71.400000
0.010500  71.300000
0.009700  71.400000
0.009000  71.400000
0.009000  71.100000
0.012000  71.400000
0.010500  71.300000
0.008200  71.300000
0.006700  71.300000
0.007500  71.000000
0.009000  71.300000
0.007500  71.100000
0.005200  71.200000
0.005200  71.100000
0.003000  71.100000
0.003700  71.100000
0.001500  71.100000
-0.001500  71.000000
-0.001500  71.000000
-0.004600  71.100000
-0.003000  71.100000
-0.004600  71.100000
-0.006000  71.100000
-0.006800  70.900000
-0.009100  71.000000
-0.009100  70.800000
-0.009800  71.000000
-0.010500  70.900000
-0.012000  70.700000
-0.013500  70.900000
-0.012000  70.800000
-0.012000  70.800000
-0.008300  70.600000
-0.009100  70.900000
-0.007500  70.600000
-0.004600  70.900000
-0.005300  70.800000
-0.004600  70.600000
-0.005300  70.800000
-0.005300  70.500000
-0.005300  70.600000
-0.004600  70.600000
-0.001500  70.600000
0.003000  70.800000
0.006700  70.500000
0.009700  70.600000
0.010500  70.500000
0.010500  70.600000
0.011200  70.400000
0.009000  70.500000
0.009000  70.500000
0.008200  70.500000
0.007500  70.400000
0.005200  70.300000
0.004500  70.400000
0.003000  70.300000
-0.003800  70.300000
-0.005300  70.300000
-0.006800  70.200000
-0.005300  70.100000
-0.004600  70.100000
-0.005300  70.100000
-0.003000  70.200000
-0.001500  70.200000
0.000700  70.000000
0.002200  70.200000
0.003000  70.000000
0.003700  70.000000
0.004500  70.200000
0.006700  69.900000
0.008200  70.000000
0.008200  69.800000
0.008200  69.900000
0.007500  69.900000
0.007500  69.700000
0.005200  69.800000
0.003000  69.800000
0.000700  69.800000
-0.000800  69.700000
-0.003000  69.700000
-0.004600  69.600000
-0.004600  69.700000
-0.006800  69.600000
-0.010500  69.400000
-0.012000  69.600000
-0.010500  69.500000
-0.011300  69.500000
-0.010500  69.500000
-0.010500  69.400000
-0.009800  69.300000
-0.006800  69.400000
-0.003800  69.300000
-0.001500  69.500000
-0.000800  69.300000
0.000700  69.300000
0.004500  69.300000
0.005200  69.300000
0.009000  69.100000
0.013500  69.200000
0.014200  69.100000
0.014200  69.100000
0.015000  69.000000
0.015700  68.900000
0.016500  69.000000
0.016500  69.000000
0.015000  69.000000
0.013500  68.900000
0.014200  68.800000
0.012000  68.900000
0.009000  68.800000
0.009700  68.800000
0.007500  68.800000
0.004500  68.800000
0.003000  68.500000
0.000700  68.800000
0.000000  68.600000
-0.000800  68.700000
-0.001500  68.500000
-0.003000  68.500000
-0.004600  68.400000
-0.005300  68.400000
-0.005300  68.300000
-0.004600  68.400000
-0.005300  68.300000
-0.005300  68.300000
-0.007500  68.300000
-0.007500  68.300000
-0.009100  68.100000
-0.010500  68.000000
-0.009800  68.000000
-0.009100  68.000000
-0.009800  68.000000
-0.008300  67.800000
-0.006800  68.000000
-0.006800  68.000000
-0.003000  67.800000
-0.003000  67.900000
-0.002300  67.900000
-0.001500  67.800000
-0.000800  67.900000
-0.000800  67.500000
-0.002300  67.700000
-0.001500  67.700000
-0.004600  67.500000
-0.004600  67.800000
-0.006000  67.400000
-0.009100  67.500000
-0.012000  67.400000
-0.014300  67.200000
-0.015800  67.300000
-0.015800  67.400000
-0.014300  67.200000
-0.014300  67.300000
-0.013500  67.200000
-0.010500  67.200000
-0.006800  67.200000
-0.006000  67.000000
-0.005300  67.100000
-0.004600  67.100000
-0.002300  67.100000
0.000000  67.100000
0.002200  66.800000
0.005200  67.000000
0.005200  66.800000
0.006700  66.900000
0.007500  66.800000
0.003000  66.800000
-0.000800  66.600000
-0.003800  66.700000
-0.008300  66.800000
-0.010500  66.500000
-0.009100  66.600000
-0.008300  66.200000
-0.004600  66.600000
-0.003000  66.300000
0.000700  66.300000
0.004500  66.400000
0.008200  66.400000
0.010500  66.300000
0.010500  66.200000
0.010500  66.100000
0.011200  66.200000
0.011200  66.100000
0.007500  65.900000
0.003000  65.900000
0.001500  66.000000
-0.001500  65.700000
-0.002300  66.000000
-0.003000  65.600000
-0.004600  65.800000
-0.004600  65.800000
-0.002300  65.700000
-0.003000  65.500000
-0.005300  65.500000
-0.004600  65.400000
-0.003800  65.500000
-0.003000  65.400000
-0.001500  65.200000
-0.001500  65.200000
-0.000800  65.200000
0.002200  65.100000
0.005200  65.200000
0.005200  64.900000
0.004500  65.000000
0.006700  64.800000
0.006700  64.800000
0.006700  64.800000
0.004500  64.700000
0.004500  64.800000
0.006700  64.700000
0.009000  64.500000
0.008200  64.400000
0.006000  64.500000
0.006700  64.300000
0.006000  64.500000
0.004500  64.200000
0.003000  64.200000
0.001500  64.300000
0.000000  64.000000
-0.000800  64.000000
-0.001500  64.000000
-0.004600  63.800000
-0.003800  64.000000
-0.003800  63.700000
-0.006000  63.700000
-0.005300  63.500000
-0.007500  63.700000
-0.008300  63.400000
-0.008300  63.500000
-0.006000  63.400000
-0.005300  63.100000
-0.004600  63.400000
-0.004600  63.000000
-0.006000  63.200000
-0.006000  63.000000
-0.006000  63.000000
-0.006000  63.000000
-0.004600  62.800000
-0.005300  62.700000
-0.004600  62.700000
-0.001500  62.500000
-0.000800  62.700000
0.000700  62.800000
-0.001500  62.400000
-0.000800  62.400000
0.001500  62.400000
-0.000800  62.100000
-0.003000  62.200000
-0.003000  62.100000
-0.001500  62.100000
-0.000800  62.000000
-0.001500  61.800000
-0.001500  61.700000
-0.001500  61.600000
-0.001500  61.700000
0.003000  61.600000
0.003000  61.400000
0.003700  61.300000
0.005200  61.500000
0.003700  61.200000
0.003700  61.200000
0.003000  61.200000
0.003000  60.700000
0.003700  61.100000
0.003000  60.800000
0.004500  60.800000
0.004500  60.800000
0.005200  60.500000
0.005200  60.500000
0.006700  60.400000
0.008200  60.500000
0.009700  60.300000
0.011200  60.300000
0.012700  60.100000
0.012000  59.900000
0.013500  59.900000
0.013500  59.900000
0.012000  59.800000
0.010500  59.600000
0.006000  59.800000
0.003000  59.600000
0.000000  59.400000
-0.004600  59.300000
-0.005300  59.300000
-0.006800  59.200000
-0.007500  58.900000
-0.006000  59.000000
-0.005300  59.100000
-0.004600  58.900000
-0.003000  58.900000
-0.000800  59.000000
-0.001500  58.800000
-0.002300  58.800000
0.000000  58.900000
-0.000800  58.600000
0.000700  58.900000
0.003000  58.700000
0.002200  58.600000
0.004500  58.600000
0.004500  58.500000
0.002200  58.400000
-0.002300  58.700000
-0.004600  58.500000
0.000000  58.500000
0.001500  58.300000
0.001500  58.400000
0.003000  58.200000
0.005200  58.100000
0.007500  58.000000
0.006700  58.000000
0.008200  57.800000
0.009700  57.900000
0.011200  57.700000
0.012000  57.400000
0.012000  57.400000
0.011200  57.400000
0.011200  57.200000
0.009000  57.200000
0.010500  57.100000
0.009700  57.000000
0.008200  56.800000
0.008200  56.800000
0.007500  56.600000
0.004500  56.700000
0.002200  56.400000
0.000700  56.500000
-0.001500  56.300000
-0.004600  56.000000
-0.006800  56.100000
-0.010500  55.900000
-0.012800  55.900000
-0.012800  56.000000
-0.012800  55.700000
-0.013500  55.700000
-0.012000  55.500000
-0.010500  55.500000
-0.008300  55.400000
-0.006000  55.500000
-0.008300  55.200000
-0.006800  55.400000
-0.005300  55.200000
-0.006800  55.200000
-0.009100  55.300000
-0.009800  55.100000
-0.010500  55.100000
-0.006800  55.100000
-0.002300  55.100000
-0.002300  55.300000
-0.001500  55.000000
0.000700  54.900000
0.003000  54.800000
0.003700  54.800000
0.003700  54.600000
0.003000  54.600000
0.003700  54.500000
0.003000  54.700000
0.001500  54.500000
-0.001500  54.300000
-0.004600  54.300000
-0.004600  54.200000
-0.006800  54.000000
-0.007500  54.000000
-0.009100  53.600000
-0.008300  53.600000
-0.009100  53.600000
-0.009100  53.400000
-0.008300  53.600000
-0.009800  53.300000
-0.012800  53.100000
-0.013500  53.100000
-0.014300  53.100000
-0.014300  52.900000
-0.013500  52.800000
-0.011300  52.800000
-0.009100  52.700000
-0.008300  52.700000
-0.006000  52.400000
-0.003800  52.500000
-0.000800  52.400000
0.003000  52.400000
0.004500  52.200000
0.009000  52.200000
0.009000  52.100000
0.009700  52.000000
0.011200  51.900000
0.012000  52.100000
0.012700  51.900000
0.011200  51.700000
0.008200  51.800000
0.004500  51.700000
0.000700  51.500000
-0.000800  51.600000
-0.003000  51.400000
-0.005300  51.400000
-0.006000  51.300000
-0.009100  51.200000
-0.010500  51.300000
-0.012000  51.000000
-0.013500  51.100000
-0.010500  50.900000
-0.008300  50.800000
-0.006000  50.800000
-0.003000  50.800000
-0.003000  50.600000
-0.001500  50.600000
0.000700  50.500000
0.003000  50.400000
0.006000  50.400000
0.008200  50.000000
0.009700  49.900000
0.014200  50.000000
0.017200  49.700000
0.018700  49.800000
0.023200  49.800000
0.024700  49.600000
0.024000  49.500000
0.020200  49.500000
0.016500  49.400000
0.014200  49.400000
0.010500  49.400000
0.006700  49.200000
0.003700  49.100000
0.003000  49.000000
0.000700  48.900000
-0.003000  49.100000
-0.006800  48.700000
-0.011300  48.800000
-0.013500  48.600000
-0.015800  48.600000
-0.019500  48.600000
-0.020300  48.500000
-0.024000  48.500000
-0.027000  48.300000
-0.027800  48.300000
-0.028500  48.200000
-0.028500  48.200000
-0.029300  48.000000
-0.025600  48.100000
-0.018100  48.000000
-0.013500  47.800000
-0.011300  47.900000
-0.006800  47.700000
-0.005300  47.700000
-0.005300  47.600000
-0.003800  47.600000
-0.005300  47.600000
-0.003800  47.400000
-0.000800  47.500000
0.005200  47.300000
0.010500  47.200000
0.012000  47.100000
0.012700  47.200000
0.004500  47.300000
-0.008300  47.100000
-0.020300  47.100000
-0.031500  46.800000
-0.039800  47.000000
-0.038300  46.800000
-0.030800  46.800000
-0.019500  46.800000
-0.010500  46.700000
-0.003800  46.800000
-0.001500  46.800000
0.001500  46.500000
0.005200  46.300000
0.009000  46.400000
0.012700  46.300000
0.014200  46.200000
0.015700  46.200000
0.016500  46.100000
0.019500  46.200000
0.019500  46.000000
0.020200  45.900000
0.024000  45.900000
0.027000  45.900000
0.027000  45.800000
0.024700  45.900000
0.023200  45.800000
0.020200  45.700000
0.016500  45.600000
0.016500  45.700000
0.013500  45.500000
0.014200  45.600000
0.012700  45.400000
0.011200  45.400000
0.010500  45.300000
0.007500  45.300000
0.008200  45.300000
0.009000  45.000000
0.009000  45.100000
0.009000  45.000000
0.010500  44.800000
0.012000  44.900000
0.012700  44.700000
0.015000  45.000000
0.013500  44.900000
0.011200  44.500000
0.009000  44.500000
0.003700  44.700000
0.000700  44.400000
-0.003000  44.600000
-0.006000  44.200000
-0.006800  44.300000
-0.006800  43.900000
-0.007500  44.100000
-0.006800  44.000000
-0.006800  44.000000
-0.004600  44.000000
-0.004600  43.900000
-0.006800  43.900000
-0.006000  43.600000
-0.007500  43.500000
-0.009800  43.600000
-0.008300  43.400000
-0.006000  43.400000
-0.005300  43.300000
-0.003800  43.400000
-0.005300  43.500000
-0.005300  43.300000
-0.002300  43.400000
0.000700  43.300000
0.006000  43.300000
0.006700  43.100000
0.003700  43.100000
0.004500  43.200000
0.005200  43.000000
0.006000  43.100000
0.004500  43.100000
-0.003000  43.000000
-0.004600  42.900000
-0.008300  42.700000
-0.012000  42.900000
-0.008300  42.600000
-0.006000  42.700000
-0.003800  42.600000
-0.002300  42.700000
0.003000  42.600000
0.007500  42.500000
0.011200  42.700000
0.014200  42.400000
0.017200  42.300000
0.021700  42.300000
0.027000  42.300000
0.030700  42.300000
0.033000  42.100000
0.036000  42.200000
0.029200  42.000000
0.015700  42.000000
0.003700  42.100000
-0.009100  41.900000
-0.019500  41.900000
-0.020300  41.700000
-0.012800  41.600000
-0.002300  41.700000
0.003000  41.400000
0.003700  41.800000
0.002200  41.400000
-0.001500  41.600000
-0.003000  41.400000
-0.006800  41.400000
-0.006800  41.400000
-0.006800  41.100000
-0.008300  41.100000
-0.005300  41.100000
-0.003000  41.000000
0.001500  41.000000
0.006000  40.900000
0.008200  40.900000
0.009000  40.700000
0.005200  40.900000
-0.004600  40.700000
-0.013500  40.700000
-0.023300  40.700000
-0.029300  40.500000
-0.027800  40.600000
-0.022500  40.400000
-0.019500  40.300000
-0.022500  40.500000
-0.030000  40.200000
-0.033000  40.200000
-0.034600  40.000000
-0.034600  40.000000
-0.023300  40.000000
-0.011300  39.800000
-0.009800  40.000000
-0.008300  39.600000
-0.011300  39.700000
-0.010500  39.600000
0.000000  39.600000
0.012000  39.600000
0.020200  39.600000
0.021000  39.400000
0.018000  39.300000
0.011200  39.300000
0.003000  39.400000
-0.006800  39.100000
-0.012800  39.200000
-0.005300  39.100000
0.003700  39.200000
0.006700  39.000000
0.006700  38.800000
0.003000  39.000000
-0.001500  38.800000
-0.009100  38.800000
-0.018100  38.500000
-0.016500  38.700000
-0.009800  38.700000
-0.003000  38.600000
0.004500  38.600000
0.012700  38.500000
0.015000  38.400000
0.011200  38.400000
0.010500  38.200000
0.011200  38.300000
0.010500  38.100000
0.008200  38.100000
0.010500  37.900000
0.009700  37.900000
0.010500  37.900000
0.010500  37.700000
0.007500  37.900000
0.000000  37.600000
-0.010500  37.500000
-0.018800  37.500000
-0.022500  37.500000
-0.024000  37.300000
-0.026300  37.300000
-0.025600  37.200000
-0.026300  37.300000
-0.023300  37.000000
-0.014300  37.200000
-0.006800  36.900000
0.000000  37.000000
0.006700  36.900000
0.010500  36.900000
0.012700  36.800000
0.012000  36.700000
0.004500  36.900000
-0.009100  36.500000
-0.023300  36.500000
-0.041300  36.500000
-0.043600  36.400000
-0.036100  36.400000
-0.041300  36.200000
-0.035300  36.200000
-0.015800  36.200000
0.001500  36.100000
0.013500  35.900000
0.021700  35.900000
0.029200  36.000000
0.037500  35.800000
0.046500  35.800000
0.046500  35.800000
0.040500  35.500000
0.031500  35.700000
0.022500  35.500000
0.021700  35.500000
0.021000  35.500000
0.016500  35.400000
0.010500  35.500000
0.006000  35.200000
0.003700  35.300000
0.006700  35.100000
0.008200  35.100000
0.003000  35.100000
0.006000  35.100000
0.015700  35.100000
0.022500  34.900000
0.027700  35.100000
0.036700  34.700000
0.042000  34.700000
0.042700  34.500000
0.040500  34.600000
0.034500  34.600000
0.027000  34.600000
0.012700  34.400000
-0.003800  34.600000
-0.008300  34.300000
-0.005300  34.300000
-0.006800  34.200000
-0.001500  34.200000
0.006700  34.200000
0.010500  33.900000
0.014200  34.000000
0.014200  33.800000
0.009700  33.900000
0.001500  33.600000
-0.007500  33.700000
-0.018800  33.600000
-0.044300  33.600000
-0.066800  33.600000
-0.067500  33.600000
-0.060000  33.300000
-0.054800  33.600000
-0.054800  33.100000
-0.047300  33.600000
-0.027000  33.000000
-0.006800  33.300000
0.007500  33.200000
0.016500  33.200000
0.023200  33.100000
0.033000  32.900000
0.036700  33.000000
0.033000  32.700000
0.029200  32.900000
0.016500  32.700000
-0.004600  32.500000
-0.029300  32.400000
-0.049500  32.500000
-0.050300  32.200000
-0.024800  32.400000
0.009000  32.200000
0.033000  32.200000
0.039000  32.100000
0.035200  32.100000
0.030000  32.000000
0.018000  31.900000
0.014200  31.900000
0.018700  31.700000
0.023200  31.900000
0.029200  31.900000
0.034500  31.700000
0.015700  31.700000
-0.012000  31.500000
-0.021000  31.600000
-0.026300  31.500000
-0.025600  31.500000
-0.022500  31.400000
-0.024000  31.400000
-0.033000  31.300000
-0.039800  31.200000
-0.039800  31.300000
-0.034600  31.200000
-0.021800  31.100000
-0.014300  31.200000
-0.009800  31.000000
-0.003000  31.000000
-0.000800  31.000000
0.004500  30.700000
0.012000  30.800000
0.012000  30.600000
0.015000  30.500000
0.012700  30.600000
0.009000  30.500000
0.003700  30.400000
-0.003000  30.200000
-0.006800  30.300000
-0.012000  29.800000
-0.015800  30.100000
-0.020300  29.800000
-0.019500  29.800000
-0.005300  29.800000
0.007500  29.700000
0.012700  29.600000
0.018000  29.600000
0.018000  29.500000
0.015700  29.500000
0.015700  29.300000
0.018700  29.400000
0.021700  29.200000
0.018000  29.200000
0.010500  29.200000
-0.001500  29.000000
-0.012800  29.000000
-0.020300  29.000000
-0.019500  29.000000
-0.009800  28.800000
-0.015000  28.800000
-0.029300  28.800000
-0.041300  28.800000
-0.042800  28.500000
-0.032300  28.500000
-0.016500  28.300000
0.000700  28.600000
0.016500  28.200000
0.032200  28.400000
0.040500  28.200000
0.047200  28.000000
0.055500  28.100000
0.057700  27.900000
0.050200  27.900000
0.039700  27.800000
0.033000  27.800000
0.031500  27.600000
0.023200  27.600000
0.006000  27.500000
-0.010500  27.500000
-0.021800  27.400000
-0.024800  27.300000
-0.031500  27.200000
-0.040500  27.300000
-0.042000  27.000000
-0.037500  27.100000
-0.045800  26.900000
-0.058500  27.000000
-0.048000  26.900000
-0.021800  26.800000
0.007500  27.000000
0.029200  26.600000
0.048000  26.800000
0.061500  26.600000
0.059200  26.700000
0.044200  26.500000
0.009700  26.500000
-0.018100  26.500000
-0.020300  26.300000
-0.027800  26.100000
-0.016500  26.200000
0.014200  26.100000
0.027700  26.100000
0.033000  26.000000
0.027700  25.900000
0.014200  26.000000
0.012000  25.800000
0.005200  26.000000
0.000700  25.600000
-0.008300  25.600000
-0.018800  25.400000
-0.031500  25.400000
-0.045800  25.400000
-0.038300  25.200000
-0.007500  25.200000
0.018000  25.300000
0.027000  25.100000
0.030700  25.200000
0.027700  25.100000
0.020200  25.000000
0.023200  24.800000
0.033000  24.800000
0.023200  24.800000
-0.009100  24.700000
-0.036800  24.700000
-0.049500  24.700000
-0.051800  24.700000
-0.035300  24.600000
-0.014300  24.400000
-0.011300  24.400000
-0.005300  24.400000
0.011200  24.400000
0.023200  24.500000
0.024000  24.100000
0.022500  24.300000
0.017200  24.100000
0.015000  24.200000
0.015700  24.000000
0.010500  24.000000
-0.011300  24.000000
-0.051800  23.700000
-0.105000  23.800000
-0.131300  23.600000
-0.095300  23.500000
-0.054000  23.500000
-0.021800  23.300000
-0.005300  23.500000
0.005200  23.300000
0.018700  23.500000
0.031500  23.300000
0.049500  23.200000
0.052500  23.200000
0.050200  23.000000
0.039000  23.200000
0.006700  22.900000
-0.033800  22.900000
-0.055500  22.900000
-0.053300  22.900000
-0.042000  22.800000
-0.010500  22.800000
0.021700  22.500000
0.035200  22.800000
0.030000  22.500000
0.027000  22.800000
0.005200  22.500000
-0.042000  22.500000
-0.078000  22.500000
-0.090000  22.300000
-0.042800  22.300000
-0.009100  22.200000
0.002200  22.500000
0.024000  22.200000
0.024700  22.300000
0.037500  22.100000
0.045700  22.100000
0.054000  21.900000
0.045700  22.000000
0.006700  21.900000
-0.038300  21.900000
-0.086300  21.800000
-0.075000  22.000000
-0.034600  21.600000
-0.016500  21.600000
0.001500  21.800000
0.017200  21.500000
0.025500  21.600000
0.035200  21.500000
0.038200  21.500000
0.040500  21.200000
0.038200  21.200000
0.030700  21.200000
0.020200  21.100000
0.012700  21.200000
0.005200  21.200000
0.008200  21.000000
0.029200  21.100000
0.057000  20.700000
0.084000  20.800000
0.082500  20.700000
0.053200  20.900000
0.001500  20.600000
-0.075000  20.700000
-0.128300  20.600000
-0.122300  20.500000
-0.087100  20.500000
-0.078800  20.300000
-0.087800  20.300000
-0.080300  20.300000
-0.048000  20.400000
-0.009100  20.300000
0.025500  20.200000
0.065200  20.400000
0.097500  20.200000
0.109500  19.900000
0.102700  20.000000
0.064500  19.800000
0.019500  20.100000
-0.012000  19.600000
-0.039000  19.800000
-0.057800  19.700000
-0.061500  19.600000
-0.045800  19.500000
-0.003000  19.600000
0.030000  19.600000
0.028500  19.400000
0.012000  19.400000
0.001500  19.500000
0.018700  19.300000
0.010500  19.400000
-0.003000  19.300000
-0.001500  19.100000
-0.009100  19.200000
0.004500  19.000000
0.016500  19.000000
0.024700  19.000000
0.028500  19.000000
0.034500  18.900000
0.057000  18.900000
0.084000  18.900000
0.100500  18.700000
0.111000  18.600000
0.114700  18.700000
0.070500  18.400000
-0.019500  18.500000
-0.097500  18.300000
-0.103500  18.500000
-0.059300  18.400000
-0.042000  18.300000
-0.023300  18.400000
0.009000  18.200000
0.022500  18.200000
0.027700  18.100000
0.029200  18.100000
0.020200  18.000000
0.001500  17.800000
0.001500  17.900000
0.028500  17.900000
0.053200  17.700000
0.075000  17.900000
0.092200  17.700000
0.090000  17.900000
0.051700  17.500000
-0.039000  17.500000
-0.150000  17.500000
-0.170300  17.500000
-0.097500  17.400000
-0.034600  17.300000
0.004500  17.500000
0.027000  17.200000
0.039000  17.400000
0.042700  17.200000
0.031500  17.200000
0.031500  17.100000
0.019500  17.200000
0.005200  17.000000
0.009000  17.000000
0.024000  16.900000
0.036700  17.000000
0.043500  16.700000
0.039700  17.000000
-0.003000  16.600000
-0.066800  16.700000
-0.093800  16.700000
-0.050300  16.500000
-0.012000  16.700000
-0.020300  16.400000
-0.023300  16.400000
-0.008300  16.400000
-0.000800  16.300000
-0.003000  16.300000
0.018000  16.200000
0.035200  16.200000
0.050200  16.300000
0.060000  16.200000
0.027700  16.200000
0.028500  15.900000
0.070500  16.200000
0.070500  16.000000
0.043500  16.100000
-0.012800  15.800000
-0.087100  15.800000
-0.126800  15.800000
-0.153800  15.800000
-0.136500  15.700000
-0.106500  15.600000
-0.056300  15.600000
0.005200  15.800000
0.015700  15.400000
0.015700  15.600000
-0.017300  15.400000
-0.045000  15.400000
-0.044300  15.400000
-0.029300  15.400000
-0.004600  15.300000
0.015000  15.300000
0.051700  15.300000
0.062200  15.200000
0.049500  15.300000
0.017200  15.100000
-0.039800  15.000000
-0.093800  15.000000
-0.097500  14.900000
-0.051800  15.000000
-0.015000  15.000000
0.023200  14.700000
0.048700  15.100000
0.068200  14.600000
0.057000  14.900000
-0.009800  14.700000
-0.073500  14.600000
-0.057000  14.700000
0.004500  14.400000
-0.009100  14.600000
-0.057000  14.400000
-0.111800  14.500000
-0.142600  14.500000
-0.133500  14.400000
-0.111000  14.400000
-0.051800  14.300000
-0.021800  14.200000
-0.010500  14.100000
0.003000  14.100000
0.021000  14.100000
0.055500  14.000000
0.084000  14.000000
0.121500  14.000000
0.135000  14.000000
0.138700  13.900000
0.121500  13.800000
0.060000  13.900000
0.009700  13.800000
-0.040500  13.700000
-0.076500  13.600000
-0.089300  13.700000
-0.079500  13.800000
-0.045000  13.500000
-0.012800  13.600000
-0.010500  13.500000
-0.003800  13.600000
0.028500  13.600000
0.049500  13.400000
0.030000  13.400000
-0.053300  13.200000
-0.118500  13.500000
-0.081800  13.200000
-0.019500  13.300000
0.012700  13.300000
0.031500  13.100000
0.044200  13.100000
0.045700  13.200000
0.014200  13.000000
-0.008300  13.100000
0.005200  12.900000
0.048000  13.000000
0.084000  12.800000
0.090000  12.700000
0.117700  12.800000
0.162700  12.600000
0.179200  12.700000
0.156000  12.400000
0.060700  12.700000
-0.113300  12.600000
-0.255800  12.500000
-0.280600  12.500000
-0.235500  12.400000
-0.129800  12.400000
-0.024000  12.300000
0.015700  12.100000
0.042000  12.400000
0.055500  12.100000
0.063000  12.300000
0.076500  11.900000
0.097500  12.100000
0.102000  12.000000
0.101200  12.100000
0.105000  11.900000
0.073500  11.800000
0.060000  12.000000
0.041200  11.900000
-0.029300  11.800000
-0.090000  11.800000
-0.069100  11.800000
-0.010500  11.800000
0.021000  11.700000
0.054000  11.700000
0.087000  11.600000
0.071200  11.400000
-0.001500  11.700000
-0.052500  11.300000
-0.046500  11.600000
-0.048000  11.300000
-0.057000  11.400000
-0.031500  11.400000
0.012000  11.300000
0.089200  11.300000
0.176200  11.200000
0.229500  11.200000
0.231700  11.100000
0.168700  10.900000
0.075000  11.400000
-0.001500  10.900000
-0.035300  11.200000
-0.057000  10.900000
-0.111800  10.900000
-0.116300  10.900000
-0.069800  10.800000
-0.046500  11.100000
-0.037500  10.800000
-0.012800  10.900000
-0.002300  10.900000
0.011200  10.700000
0.053200  10.700000
0.033000  10.700000
-0.001500  10.700000
-0.036800  10.600000
-0.106500  10.400000
-0.123800  10.600000
-0.063000  10.300000
-0.037500  10.600000
-0.093800  10.300000
-0.065300  10.500000
0.043500  10.300000
0.048700  10.300000
-0.059300  10.500000
-0.085600  10.100000
0.015700  10.400000
0.072700  10.300000
0.087000  10.200000
0.066700  10.000000
-0.018100  10.000000
-0.104300  10.100000
-0.167300  9.800000
-0.190500  9.900000
-0.241500  9.800000
-0.231000  9.700000
-0.061500  9.900000
0.082500  9.600000
0.123700  9.700000
0.075000  9.500000
-0.054000  9.500000
-0.080300  9.500000
0.034500  9.300000
0.106500  9.400000
0.144700  9.300000
0.183700  9.300000
0.193500  9.400000
0.141000  9.200000
0.051700  9.300000
-0.005300  9.000000
-0.065300  9.100000
-0.064500  8.900000
-0.039800  9.000000
0.016500  9.000000
0.061500  8.700000
0.048000  8.900000
0.060700  8.700000
-0.089300  8.800000
-0.278300  8.500000
-0.315800  8.600000
-0.297800  8.500000
-0.186000  8.500000
-0.076500  8.500000
0.010500  8.400000
0.120700  8.300000
0.187500  8.400000
0.213000  8.300000
0.214500  8.200000
0.228700  8.100000
0.203200  8.100000
0.150000  8.100000
0.074200  8.000000
-0.040500  8.100000
-0.060000  7.800000
-0.035300  8.100000
-0.068300  7.900000
-0.150000  7.700000
-0.130500  7.800000
0.027000  7.800000
0.138700  7.600000
0.187500  7.600000
0.097500  7.400000
-0.054000  7.600000
-0.124500  7.500000
-0.163500  7.700000
-0.221300  7.300000
-0.290300  7.600000
-0.172600  7.200000
0.001500  7.500000
0.078700  7.400000
0.080200  7.300000
-0.005300  7.300000
-0.028500  7.200000
-0.002300  7.200000
0.046500  7.200000
0.084000  7.100000
0.081700  7.100000
0.123700  7.200000
0.192000  7.100000
0.170200  7.300000
0.034500  6.800000
-0.071300  7.200000
-0.101300  6.900000
-0.133500  7.100000
-0.207000  7.000000
-0.184500  6.800000
-0.041300  7.000000
0.104200  7.000000
0.223500  6.800000
0.261700  6.700000
0.090000  6.700000
-0.207000  6.600000
-0.240800  6.400000
-0.084000  6.600000
-0.009100  6.500000
0.078000  6.600000
0.122200  6.400000
0.102000  6.500000
0.076500  6.500000
0.026200  6.300000
-0.027800  6.400000
-0.055500  6.300000
-0.019500  6.200000
-0.063800  6.300000
-0.108800  6.200000
-0.038300  6.200000
-0.020300  6.300000
-0.008300  5.900000
0.030700  6.300000
0.055500  6.000000
0.089200  6.300000
0.077200  6.100000
0.023200  6.000000
-0.012800  6.100000
0.003000  6.000000
-0.019500  5.900000
-0.104300  5.600000
-0.134300  5.900000
-0.047300  5.800000
0.018000  5.800000
0.051000  5.800000
0.164200  5.700000
0.244500  5.800000
0.257200  5.800000
0.162700  5.500000
-0.032300  5.700000
-0.188300  5.500000
-0.206300  5.600000
-0.223500  5.600000
-0.261800  5.600000
-0.180800  5.500000
-0.125300  5.300000
-0.071300  5.800000
-0.042000  5.300000
-0.065300  5.500000
-0.046500  5.400000
-0.027800  5.400000
0.049500  5.300000
0.140200  5.300000
0.195000  5.300000
0.203200  5.500000
0.129000  5.200000
0.015700  5.400000
-0.011300  5.200000
0.070500  5.300000
0.106500  5.200000
0.050200  5.200000
-0.007500  5.100000
-0.012800  5.200000
-0.009100  5.200000
0.059200  5.000000
0.121500  5.000000
0.057000  5.000000
0.015000  5.100000
-0.071300  4.900000
-0.148500  5.000000
-0.025600  5.000000
0.082500  5.000000
-0.014300  4.800000
-0.206300  5.000000
-0.198800  4.800000
-0.026300  5.100000
0.039000  4.900000
0.063000  4.900000
0.099000  4.800000
0.105700  4.900000
0.112500  5.000000
0.081000  4.800000
0.039000  4.900000
0.035200  4.800000
0.026200  4.800000
0.000000  4.900000
0.006700  4.600000
0.024000  4.800000
-0.093800  4.600000
-0.188300  4.700000
-0.087800  4.700000
-0.024000  4.700000
-0.081000  4.700000
-0.126000  4.700000
-0.096800  4.600000
-0.114000  4.700000
-0.066000  4.600000
0.042000  4.700000
0.124500  4.600000
0.222000  4.500000
0.190500  4.500000
0.017200  4.500000
-0.221300  4.600000
-0.264800  4.500000
-0.180800  4.700000
-0.065300  4.600000
0.105700  4.500000
0.199500  4.700000
0.304500  4.400000
0.350200  4.700000
0.327700  4.500000
0.267700  4.600000
0.133500  4.400000
-0.076500  4.700000
-0.237800  4.600000
-0.314300  4.500000
-0.340600  4.700000
-0.176300  4.500000
0.029200  4.500000
0.199500  4.600000
0.257200  4.600000
0.081700  4.700000
-0.206300  4.300000
-0.375800  4.600000
-0.284300  4.700000
-0.142600  4.400000
-0.026300  4.500000
0.085500  4.500000
0.156000  4.500000
0.236200  4.400000
0.284200  4.600000
0.207000  4.400000
-0.029300  4.400000
-0.214500  4.400000
-0.273000  4.400000
-0.396000  4.400000
-0.477000  4.600000
-0.327800  4.400000
-0.072800  4.400000
0.108000  4.300000
0.236200  4.700000
0.347200  4.400000
0.425200  4.500000
0.437200  4.400000
0.356200  4.400000
0.225700  4.500000
0.008200  4.500000
-0.132800  4.600000
-0.137300  4.500000
-0.170300  4.400000
-0.125300  4.400000
-0.012000  4.500000
0.160500  4.500000
0.178500  4.500000
0.006700  4.400000
-0.183800  4.600000
-0.384800  4.400000
-0.356300  4.700000
-0.142600  4.500000
0.054700  4.500000
0.174000  4.500000
0.213000  4.500000
0.228000  4.500000
0.250500  4.500000
0.162000  4.500000
-0.046500  4.500000
-0.174800  4.400000
-0.156000  4.500000
-0.077300  4.300000
-0.023300  4.400000
0.050200  4.400000
0.188200  4.500000
0.221200  4.400000
0.086200  4.300000
-0.201100  4.400000
-0.405100  4.400000
-0.145500  4.500000
0.128200  4.300000
0.143200  4.400000
0.102700  4.300000
-0.008300  4.200000
-0.018100  4.300000
0.052500  4.400000
0.094500  4.400000
0.046500  4.400000
0.009000  4.300000
0.021000  4.300000
-0.050300  4.200000
-0.072800  4.200000
-0.060000  4.300000
-0.097500  4.100000
-0.050300  4.400000
-0.034600  4.200000
-0.081000  4.300000
-0.048000  4.300000
-0.076500  4.200000
-0.052500  4.300000
0.042000  4.200000
0.081000  4.300000
0.053200  4.100000
-0.016500  4.200000
-0.017300  4.400000
-0.027800  4.300000
0.000700  4.300000
0.120000  4.200000
0.171000  4.200000
0.141000  4.300000
0.123000  4.200000
0.096000  4.500000
0.051700  4.100000
0.001500  4.300000
-0.066800  4.200000
-0.153800  4.100000
-0.165000  4.400000
-0.117800  4.100000
-0.050300  4.300000
0.117700  4.400000
0.186000  4.200000
0.063700  4.400000
-0.138800  4.000000
-0.219800  4.400000
-0.137300  4.200000
-0.108800  4.400000
-0.063800  4.400000
0.003000  4.200000
0.059200  4.400000
0.084700  4.200000
0.033000  4.300000
-0.048000  4.400000
-0.078000  4.200000
0.030000  4.500000
0.096000  4.200000
-0.001500  4.300000
-0.066000  4.400000
-0.034600  4.400000
0.033700  4.400000
0.023200  4.300000
-0.025600  4.400000
-0.009800  4.300000
-0.089300  4.500000
-0.132000  4.400000
-0.098300  4.300000
-0.069100  4.400000
-0.015800  4.400000
0.014200  4.400000
0.034500  4.400000
-0.036800  4.300000
-0.089300  4.400000
0.021700  4.300000
0.168700  4.400000
0.242200  4.400000
0.171700  4.500000
-0.006800  4.300000
-0.026300  4.400000
0.086200  4.500000
0.116200  4.400000
0.063700  4.200000
-0.076500  4.200000
-0.114800  4.300000
-0.109500  4.200000
-0.144800  4.300000
-0.116300  4.200000
-0.185300  4.300000
-0.230300  4.400000
-0.171100  4.500000
-0.220500  4.100000
-0.255800  4.300000
-0.108800  4.200000
0.016500  4.200000
0.115500  4.400000
0.156000  4.100000
0.078700  4.400000
0.029200  4.100000
0.075700  4.400000
0.116200  4.200000
0.070500  4.300000
0.093000  4.300000
0.140200  4.400000
0.165700  4.300000
0.188200  4.100000
0.192000  4.000000
0.126000  4.200000
0.063000  4.100000
0.127500  4.200000
0.189000  4.100000
0.157500  4.100000
0.039000  4.100000
-0.059300  4.000000
-0.167300  4.200000
-0.279800  4.000000
-0.248300  4.000000
-0.177000  4.000000
-0.062300  3.900000
0.063000  4.100000
0.111700  4.000000
0.129700  3.900000
0.156700  4.100000
0.238500  3.800000
0.267700  4.100000
0.201000  3.900000
0.057000  4.000000
-0.049500  3.800000
-0.063000  3.800000
-0.180000  3.900000
-0.199500  3.800000
-0.030000  4.100000
0.055500  4.000000
0.060000  3.900000
0.047200  4.000000
0.015000  3.900000
0.024000  4.000000
0.089200  3.900000
0.062200  4.000000
-0.088500  4.000000
-0.184500  3.800000
-0.123800  4.100000
-0.042000  3.900000
-0.059300  4.000000
-0.036100  4.000000
0.026200  4.100000
0.018000  4.100000
-0.047300  3.900000
-0.117000  4.000000
-0.135000  4.100000
-0.092300  4.000000
0.030700  4.000000
0.111700  3.900000
0.089200  4.100000
0.066000  4.000000
0.051700  4.100000
0.091500  3.900000
0.104200  4.000000
0.085500  4.100000
0.095200  4.100000
0.114700  4.100000
0.070500  3.800000
-0.084800  4.000000
-0.138800  4.000000
-0.063800  3.900000
-0.030800  4.000000
-0.046500  4.000000
-0.076500  3.800000
-0.082500  4.100000
-0.101300  3.800000
-0.164300  4.100000
-0.177000  3.900000
-0.123800  4.100000
-0.001500  4.000000
0.069000  4.000000
0.045700  4.100000
0.006700  3.900000
0.021700  4.100000
0.063000  4.000000
0.070500  4.100000
0.119200  4.100000
0.132700  4.100000
0.114000  4.000000
0.021700  4.100000
-0.253500  4.000000
-0.466500  4.000000
-0.398300  4.000000
-0.156000  4.100000
-0.006800  3.900000
-0.024000  4.000000
-0.031500  4.100000
0.072700  4.000000
0.216000  4.000000
0.223500  4.000000
0.068200  4.100000
0.036000  4.000000
0.182200  4.100000
0.108700  4.000000
-0.195000  4.000000
-0.357800  4.000000
-0.298500  3.900000
-0.167300  4.100000
-0.078000  4.100000
-0.006800  4.000000
0.028500  4.200000
0.046500  4.000000
0.063700  4.100000
0.080200  4.000000
0.078000  4.000000
0.085500  4.000000
0.111000  3.900000
0.101200  4.100000
0.125200  4.000000
0.176200  4.000000
0.196500  4.000000
0.183700  4.000000
0.155200  4.100000
0.078700  4.000000
-0.030000  3.900000
-0.093000  4.200000
-0.082500  4.000000
-0.021800  4.100000
0.020200  3.900000
0.083200  4.000000
0.144700  4.100000
0.158200  3.900000
0.146200  4.000000
0.051700  3.800000
-0.117800  3.900000
-0.192000  3.800000
-0.153800  3.900000
-0.094500  3.900000
-0.009800  3.900000
0.068200  3.900000
0.145500  4.000000
0.210700  3.800000
0.236200  4.000000
0.222000  3.900000
0.063700  3.800000
-0.241500  3.900000
-0.448500  3.900000
-0.347300  4.100000
-0.183000  3.800000
-0.099800  4.000000
-0.034600  3.800000
-0.004600  3.900000
0.038200  3.900000
0.030700  3.900000
0.055500  3.900000
0.076500  3.800000
0.024000  3.800000
-0.032300  4.000000
-0.108800  3.800000
-0.044300  4.000000
0.066700  3.800000
0.094500  3.900000
0.061500  3.800000
-0.106500  3.800000
-0.207000  3.700000
-0.140300  3.700000
0.008200  3.800000
0.123000  3.900000
0.126000  3.800000
0.114700  3.800000
0.099700  3.700000
0.138700  3.900000
0.180700  3.800000
0.149200  3.700000
0.090700  3.800000
-0.018100  3.600000
-0.088500  4.000000
-0.132000  3.800000
-0.191300  3.800000
-0.202600  3.800000
-0.142600  3.800000
-0.085600  3.900000
-0.030800  3.900000
0.043500  4.000000
0.086200  4.000000
0.141000  4.000000
0.168700  4.100000
0.171000  3.800000
0.210700  4.000000
0.259500  4.000000
0.312000  4.100000
0.309000  4.100000
0.136500  3.900000
-0.213800  4.000000
-0.468800  4.100000
-0.361500  3.900000
-0.226500  4.000000
-0.265500  3.900000
-0.228800  4.100000
-0.166500  4.000000
-0.123000  4.000000
-0.066000  4.000000
0.057000  3.900000
0.150000  4.100000
0.161200  4.000000
0.198700  4.100000
0.168000  4.100000
0.114700  4.000000
-0.001500  4.200000
-0.096800  4.000000
-0.090000  4.100000
-0.060800  3.900000
-0.054800  4.000000
-0.166500  4.100000
-0.182300  4.000000
-0.054000  4.000000
0.053200  4.000000
0.078700  4.100000
0.045000  4.100000
-0.049500  4.000000
-0.095300  4.000000
-0.015800  3.900000
0.048000  4.100000
0.105700  4.000000
0.082500  3.800000
-0.002300  4.000000
-0.024000  3.800000
0.043500  4.100000
0.126000  4.000000
0.130500  4.000000
0.135700  3.900000
0.121500  3.900000
0.120000  4.100000
0.093700  4.000000
-0.033000  3.900000
-0.177000  4.100000
-0.194300  3.800000
-0.102800  3.900000
-0.085600  3.800000
-0.108000  3.900000
-0.008300  3.900000
0.162700  3.800000
0.215200  3.900000
0.240700  3.900000
0.244500  4.000000
0.106500  3.800000
-0.019500  4.000000
-0.147800  3.900000
-0.329300  3.900000
-0.333000  4.000000
-0.188300  4.000000
-0.070600  3.900000
0.086200  4.000000
0.094500  3.900000
-0.040500  4.000000
-0.106500  4.000000
-0.065300  4.000000
0.010500  3.900000
0.018700  4.000000
0.015700  4.100000
-0.033800  3.800000
0.002200  4.000000
0.144000  3.700000
0.184500  4.000000
0.105000  3.900000
-0.068300  4.000000
-0.237800  3.900000
-0.291800  4.100000
-0.168800  4.000000
-0.020300  4.100000
-0.006800  3.900000
0.018000  4.100000
0.054000  3.900000
0.008200  4.000000
0.008200  4.100000
0.029200  3.900000
0.023200  4.100000
0.030700  3.800000
0.007500  4.100000
-0.023300  4.000000
-0.012000  4.000000
0.031500  4.100000
0.081700  4.100000
0.126700  4.100000
0.117000  3.900000
0.093700  3.900000
0.077200  4.100000
0.086200  4.000000
0.106500  4.100000
0.072700  3.700000
0.015700  4.000000
-0.027800  3.900000
-0.024000  3.800000
-0.035300  4.000000
-0.056300  3.700000
-0.048000  3.900000
-0.047300  4.000000
-0.003000  4.000000
0.031500  3.900000
0.000000  3.800000
-0.033000  4.000000
-0.054000  4.100000
-0.108000  3.700000
-0.185300  4.000000
-0.204800  3.700000
-0.129800  4.100000
-0.057800  3.800000
0.010500  3.900000
0.091500  4.000000
0.129700  3.900000
0.160500  4.000000
0.174000  3.800000
0.129700  3.800000
0.034500  3.900000
-0.002300  3.900000
0.071200  4.100000
0.114700  3.900000
0.078000  3.700000
-0.029300  3.900000
-0.152300  3.900000
-0.165800  4.000000
-0.084000  3.800000
-0.030000  3.900000
-0.016500  3.800000
-0.065300  3.900000
-0.129800  3.900000
-0.090800  3.800000
-0.020300  3.900000
0.059200  3.800000
0.111700  4.000000
0.131200  3.800000
0.142500  3.800000
0.116200  3.800000
0.056200  4.000000
0.012000  4.000000
0.057000  4.000000
0.081700  3.900000
0.058500  4.100000
0.070500  3.700000
0.090000  4.000000
0.074200  4.000000
0.057700  3.900000
0.021000  4.000000
0.024000  3.900000
0.068200  4.000000
0.025500  3.800000
-0.066000  3.900000
-0.165000  4.000000
-0.182300  3.800000
-0.090000  4.000000
-0.003000  4.100000
-0.009800  3.800000
-0.027000  4.000000
-0.014300  3.700000
-0.033000  3.900000
0.027700  4.000000
0.065200  4.000000
-0.003800  4.100000
-0.055500  3.800000
-0.029300  4.000000
-0.006800  4.000000
-0.054000  4.000000
-0.148500  4.000000
-0.237800  3.800000
-0.168800  3.900000
-0.068300  4.000000
-0.006800  4.000000
0.038200  4.100000
0.051700  4.000000
0.095200  4.100000
0.128200  4.000000
0.171700  3.900000
0.174700  4.100000
0.144000  3.900000
0.113200  4.300000
0.051700  4.100000
-0.101300  4.000000
-0.288100  4.000000
-0.281300  4.100000
-0.153800  4.000000
-0.031500  4.000000
0.066000  4.100000
0.117700  4.100000
0.137200  4.000000
0.113200  4.100000
0.094500  3.900000
0.053200  4.100000
-0.025600  3.900000
-0.081000  4.000000
-0.082500  4.100000
-0.012800  3.900000
0.014200  4.100000
-0.002300  4.200000
0.021000  4.000000
0.038200  4.000000
0.042700  4.000000
0.033000  4.100000
0.042000  4.100000
0.008200  4.000000
-0.163500  4.000000
-0.360800  3.800000
-0.344300  4.300000
-0.189800  4.100000
-0.129000  4.000000
-0.031500  4.100000
0.065200  4.000000
0.082500  4.200000
0.117700  4.200000
0.106500  4.000000
0.083200  4.200000
0.084000  4.300000
0.063000  4.200000
0.010500  4.100000
-0.080300  4.100000
-0.116300  4.000000
-0.085600  4.100000
-0.022500  4.200000
0.030700  4.000000
0.015700  4.200000
-0.014300  4.100000
-0.025600  4.100000
-0.012800  4.200000
-0.012800  4.000000
-0.018800  4.100000
0.012000  4.300000
0.033000  4.100000
0.054700  4.200000
0.069000  4.000000
0.108000  4.100000
0.140200  4.100000
0.135700  4.000000
0.139500  4.100000
0.090000  3.900000
-0.005300  4.200000
-0.078000  4.000000
-0.126000  4.200000
-0.133500  4.100000
-0.117800  4.000000
-0.066800  4.000000
0.045700  4.100000
0.111700  4.200000
0.152200  4.100000
0.147700  4.300000
0.114700  4.200000
0.085500  4.000000
0.052500  4.100000
0.031500  4.000000
-0.044300  4.000000
-0.061500  4.200000
0.001500  4.100000
0.050200  4.100000
0.072700  4.200000
0.038200  4.300000
-0.066800  3.900000
-0.136500  4.100000
-0.135800  4.200000
-0.088500  4.100000
0.033000  4.100000
0.144000  4.100000
0.186000  4.000000
0.162700  4.200000
0.084000  4.000000
-0.020300  4.200000
-0.121500  4.200000
-0.157500  4.100000
-0.087800  4.100000
0.018000  4.100000
0.089200  4.300000
0.045700  4.100000
-0.039000  4.200000
-0.060000  4.200000
-0.062300  4.200000
-0.041300  4.200000
0.019500  4.100000
0.076500  4.100000
0.119200  4.300000
0.141000  4.100000
0.127500  4.200000
0.099000  4.100000
-0.030800  4.200000
-0.194300  4.200000
-0.222000  4.100000
-0.148500  4.300000
-0.035300  4.100000
0.001500  4.200000
-0.017300  4.100000
0.000700  4.300000
0.044200  4.100000
0.089200  4.200000
0.101200  4.200000
0.078700  4.100000
0.009000  4.100000
-0.036800  4.200000
-0.099800  4.100000
-0.159000  4.200000
-0.072800  4.200000
-0.012000  4.000000
-0.029300  4.400000
-0.023300  4.000000
0.008200  4.400000
0.055500  4.200000
0.096700  4.300000
0.093000  4.100000
0.060000  4.200000
-0.024000  4.100000
-0.204800  4.100000
-0.250500  4.300000
-0.108000  4.200000
-0.023300  4.100000
0.006000  4.400000
0.060000  4.100000
0.098200  4.400000
0.129000  4.200000
0.173200  4.300000
0.174000  4.300000
0.054700  4.100000
-0.123800  4.300000
-0.218300  4.300000
-0.176300  4.300000
-0.082500  4.200000
-0.024000  4.300000
0.010500  4.400000
0.039000  4.200000
0.057700  4.200000
0.081700  4.300000
0.078700  4.100000
0.018000  4.400000
-0.071300  4.300000
-0.149300  4.100000
-0.144100  4.400000
-0.096000  4.100000
-0.107300  4.500000
-0.116300  4.200000
-0.075000  4.200000
0.023200  4.500000
0.114000  4.300000
0.139500  4.300000
0.160500  4.300000
0.105000  4.100000
-0.014300  4.400000
-0.117000  4.100000
-0.150000  4.400000
-0.136500  4.200000
-0.094500  4.400000
-0.072100  4.200000
-0.108800  4.100000
-0.044300  4.200000
0.030000  4.200000
0.092200  4.400000
0.158200  4.100000
0.177000  4.200000
0.195000  4.200000
0.135000  4.200000
0.078000  4.200000
0.107200  4.300000
0.082500  4.100000
-0.049500  4.500000
-0.114800  4.200000
-0.110300  4.400000
-0.067500  4.000000
-0.019500  4.100000
-0.052500  4.100000
-0.082500  4.100000
-0.053300  4.400000
0.034500  4.100000
0.088500  4.100000
0.063700  4.200000
0.041200  4.100000
0.001500  4.100000
-0.020300  4.100000
0.023200  4.300000
0.045700  4.200000
0.032200  4.000000
0.002200  4.300000
-0.021800  4.000000
-0.006800  4.200000
-0.001500  4.100000
-0.008300  4.100000
0.016500  4.300000
0.067500  4.000000
0.097500  4.100000
0.120700  4.000000
0.131200  4.200000
0.116200  4.100000
0.059200  4.200000
-0.024000  4.100000
-0.068300  4.100000
-0.077300  3.900000
-0.040500  4.100000
-0.012000  4.000000
-0.016500  4.200000
-0.003000  4.100000
0.023200  4.000000
0.045700  4.300000
0.016500  4.100000
-0.042800  4.300000
-0.131300  4.000000
-0.132800  4.300000
-0.034600  4.400000
0.030000  4.400000
0.112500  4.300000
0.190500  4.200000
0.217500  4.300000
0.193500  4.400000
0.133500  4.300000
0.057700  4.400000
-0.105000  4.200000
-0.345800  4.200000
-0.467300  4.300000
-0.363800  4.400000
-0.168800  4.400000
-0.033000  4.300000
0.029200  4.500000
0.059200  4.300000
0.029200  4.400000
0.004500  4.300000
0.061500  4.400000
0.070500  4.500000
0.016500  4.500000
0.024000  4.500000
0.053200  4.600000
0.059200  4.400000
0.063700  4.700000
0.087700  4.500000
0.103500  4.600000
0.083200  4.500000
0.017200  4.500000
-0.053300  4.600000
-0.039000  4.400000
0.001500  4.700000
0.033000  4.400000
0.034500  4.700000
-0.027800  4.500000
-0.078000  4.500000
-0.081000  4.600000
-0.096000  4.700000
-0.055500  4.500000
0.035200  4.700000
0.076500  4.600000
0.096000  4.700000
0.094500  4.600000
0.091500  4.700000
0.088500  4.600000
0.063000  4.500000
-0.013500  4.600000
-0.060000  4.500000
-0.032300  4.800000
0.005200  4.500000
0.082500  4.600000
0.133500  4.700000
0.120700  4.600000
0.057700  4.600000
-0.002300  4.700000
-0.013500  4.500000
-0.081000  4.700000
-0.138800  4.500000
-0.149300  4.800000
-0.148500  4.600000
-0.082500  4.600000
0.006700  4.700000
0.084000  4.400000
0.111700  4.700000
0.108700  4.600000
0.065200  4.700000
-0.006800  4.600000
-0.021800  4.500000
-0.006800  4.600000
0.018000  4.800000
0.050200  4.500000
0.039000  4.700000
0.003700  4.500000
-0.019500  4.700000
-0.072800  4.600000
-0.072800  4.800000
-0.003800  4.600000
0.027700  4.500000
0.034500  4.800000
0.003000  4.500000
0.057700  4.800000
0.149200  4.400000
0.078000  4.700000
-0.136500  4.600000
-0.370500  4.800000
-0.327000  4.500000
-0.091500  4.600000
0.030700  4.600000
0.118500  4.600000
0.180700  4.600000
0.189700  4.800000
0.198000  4.500000
0.156000  4.600000
0.036700  4.500000
-0.162000  4.500000
-0.241500  4.700000
-0.146300  4.500000
-0.116300  4.800000
-0.155300  4.700000
-0.139600  4.500000
-0.057000  4.500000
0.044200  4.700000
0.084700  4.700000
0.116200  4.700000
0.120000  4.500000
0.070500  4.700000
0.033700  4.700000
-0.016500  4.900000
-0.087800  4.500000
-0.138800  4.900000
-0.065300  4.700000
0.050200  4.800000
0.072700  4.700000
0.065200  4.700000
0.033000  4.800000
0.023200  4.900000
0.017200  4.700000
-0.042800  4.600000
-0.101300  4.700000
-0.156800  4.800000
-0.159800  4.800000
-0.120800  4.600000
-0.059300  4.700000
0.015700  4.700000
0.045700  4.900000
0.076500  4.700000
0.084700  4.900000
0.044200  4.800000
0.029200  4.800000
0.054000  4.900000
0.067500  4.800000
0.063700  4.800000
0.057700  4.800000
0.077200  4.900000
0.060000  4.900000
-0.002300  4.800000
-0.043600  4.900000
-0.069100  4.700000
-0.106500  4.900000
-0.200300  4.900000
-0.165000  4.700000
-0.068300  4.800000
-0.050300  4.800000
0.046500  4.900000
0.129000  4.800000
0.121500  4.900000
0.009000  4.700000
-0.092300  4.800000
-0.066800  4.700000
-0.030800  4.800000
-0.001500  4.700000
0.004500  5.000000
0.042700  4.700000
0.099000  4.800000
0.099000  4.900000
0.086200  4.700000
0.016500  4.900000
-0.058500  4.700000
-0.149300  4.900000
-0.224300  4.900000
-0.162000  4.900000
-0.097500  4.800000
-0.067500  4.900000
-0.022500  4.800000
0.008200  4.800000
0.060000  4.900000
0.096700  4.800000
0.099700  4.900000
0.090700  4.800000
0.062200  4.800000
0.055500  4.900000
0.066000  4.700000
0.078000  4.700000
0.097500  4.900000
0.110200  4.600000
0.093700  4.900000
0.057000  4.700000
0.060000  4.800000
0.067500  4.600000
0.035200  4.700000
0.007500  4.700000
-0.018100  4.700000
-0.067500  4.700000
-0.087800  4.700000
-0.027000  4.600000
0.031500  4.700000
-0.031500  4.500000
-0.076500  4.700000
0.020200  4.800000
0.127500  4.700000
0.154500  4.800000
0.136500  4.700000
0.142500  4.800000
0.117000  4.700000
-0.045800  4.700000
-0.205500  4.600000
-0.201800  4.500000
-0.117000  4.700000
-0.095300  4.700000
-0.156800  4.700000
-0.133500  4.800000
-0.066800  4.500000
-0.023300  4.900000
0.050200  4.700000
0.048000  4.700000
0.007500  4.500000
-0.038300  4.600000
0.004500  4.900000
0.105000  4.600000
0.106500  4.700000
0.099700  4.700000
0.060000  4.800000
-0.013500  4.800000
-0.114000  4.700000
-0.085600  4.800000
0.063700  4.900000
0.105000  4.700000
0.144700  4.900000
0.176200  4.700000
0.133500  4.800000
0.014200  4.700000
-0.144800  4.800000
-0.197300  4.700000
-0.147000  4.600000
-0.077300  4.900000
-0.033000  4.700000
0.012000  4.800000
0.073500  4.900000
0.100500  4.700000
0.075000  4.800000
0.029200  4.700000
-0.000800  4.900000
0.014200  4.900000
0.069000  4.800000
0.070500  4.900000
0.000700  4.600000
-0.045000  4.900000
-0.058500  4.700000
-0.045800  4.900000
-0.048000  4.700000
-0.074300  4.900000
-0.081800  4.900000
-0.059300  4.800000
0.007500  4.800000
0.031500  4.900000
0.021700  4.900000
0.005200  4.900000
0.018000  4.800000
0.061500  4.800000
0.100500  4.900000
0.126000  4.700000
0.054000  4.900000
-0.055500  4.700000
-0.084800  4.900000
-0.006000  4.900000
0.030700  4.900000
-0.024000  4.800000
-0.081800  4.700000
-0.114000  4.900000
-0.117800  4.900000
-0.112500  4.700000
-0.050300  4.700000
0.039000  4.800000
0.087700  4.900000
0.104200  4.700000
0.099000  4.900000
0.069000  4.900000
0.056200  4.700000
0.032200  4.800000
-0.040500  4.800000
-0.094500  4.900000
-0.168000  4.800000
-0.218300  4.700000
-0.121500  4.900000
-0.031500  4.600000
0.019500  4.800000
0.075000  4.700000
0.062200  4.900000
0.085500  4.800000
0.084000  4.700000
0.067500  4.800000
0.075700  4.700000
0.048000  4.800000
-0.009800  4.800000
-0.102100  4.500000
-0.149300  4.800000
-0.136500  4.500000
-0.045800  4.900000
0.033700  4.700000
0.042000  4.900000
0.066700  4.800000
0.033700  4.800000
-0.027800  4.700000
-0.040500  4.700000
-0.048000  4.600000
-0.054800  4.800000
-0.053300  4.700000
-0.030800  4.700000
0.009700  4.700000
0.039700  4.700000
0.063000  4.900000
0.086200  4.700000
0.116200  4.700000
0.143200  4.700000
0.168000  4.800000
0.174700  4.700000
0.123700  4.700000
0.044200  4.800000
-0.053300  4.800000
-0.135000  4.700000
-0.174100  4.700000
-0.196500  4.500000
-0.141100  4.900000
-0.029300  4.600000
0.018700  4.900000
-0.075000  4.600000
-0.131300  4.600000
-0.042000  4.700000
0.033000  4.800000
0.070500  4.800000
0.093700  4.700000
0.114000  4.600000
0.081000  4.800000
0.036700  4.800000
0.025500  4.700000
0.001500  4.700000
-0.003000  4.700000
0.030700  4.900000
0.008200  4.600000
-0.082500  4.800000
-0.106500  4.700000
-0.080300  4.800000
-0.023300  4.700000
0.047200  4.800000
0.060000  4.800000
0.023200  4.700000
-0.024800  4.900000
-0.012000  4.800000
0.015700  4.700000
0.057000  4.800000
0.156700  4.900000
0.209200  4.900000
0.188200  4.900000
0.044200  4.800000
-0.150800  4.900000
-0.155300  4.600000
-0.156000  4.900000
-0.211500  4.700000
-0.144100  4.900000
-0.051800  4.800000
0.034500  4.700000
0.063000  5.000000
0.049500  4.900000
-0.009100  4.900000
-0.089300  4.900000
-0.080300  4.900000
0.001500  4.700000
0.038200  4.900000
0.012000  4.800000
0.033700  4.800000
0.075700  4.800000
0.061500  5.000000
0.003000  4.700000
0.002200  5.000000
0.042000  4.800000
0.065200  4.900000
0.063700  4.800000
0.026200  4.800000
-0.054000  4.900000
-0.063800  4.700000
-0.011300  4.900000
-0.075000  4.900000
-0.186000  4.700000
-0.176300  4.900000
-0.026300  4.900000
0.078700  4.800000
0.101200  4.900000
0.122200  4.800000
0.100500  4.900000
0.047200  4.800000
0.003000  4.900000
0.006700  4.900000
0.010500  4.900000
-0.046500  4.700000
-0.084000  4.800000
-0.065300  4.900000
-0.076500  4.700000
-0.062300  4.800000
0.012000  4.800000
0.087700  4.800000
0.118500  4.900000
0.102700  4.700000
0.096700  4.800000
0.045700  4.700000
-0.065300  4.800000
-0.111800  4.700000
-0.042800  4.700000
0.012000  4.900000
0.048700  4.700000
0.078700  4.700000
0.072700  4.800000
0.073500  4.600000
0.048000  4.900000
0.033700  4.700000
0.041200  4.700000
0.040500  4.800000
0.042700  4.700000
-0.003800  4.800000
-0.086300  4.700000
-0.085600  4.600000
-0.049500  4.700000
-0.079500  4.600000
-0.104300  4.800000
-0.072800  4.700000
-0.043600  4.900000
-0.023300  4.700000
0.037500  4.700000
0.087000  4.900000
0.093000  4.800000
0.116200  4.900000
0.115500  4.700000
0.064500  4.700000
0.016500  4.800000
0.004500  4.800000
0.012000  4.900000
0.005200  4.800000
-0.043600  4.900000
-0.066000  4.800000
-0.045800  4.900000
-0.018100  5.100000
-0.024000  4.600000
-0.046500  4.900000
0.036700  4.800000
0.083200  4.900000
0.043500  5.000000
-0.025600  4.700000
-0.093800  4.900000
-0.088500  4.900000
-0.066000  4.700000
-0.042800  4.900000
-0.037500  4.800000
-0.015800  4.900000
0.026200  4.800000
0.020200  5.000000
-0.003000  5.000000
-0.029300  4.900000
-0.062300  5.200000
-0.041300  4.800000
0.023200  5.000000
0.058500  5.200000
0.042000  4.800000
-0.027000  4.900000
-0.063800  4.900000
-0.020300  4.900000
0.039000  4.900000
0.075000  4.900000
0.005200  5.000000
-0.106500  4.900000
-0.129800  5.100000
-0.076500  5.000000
-0.020300  5.000000
-0.030800  5.100000
-0.035300  4.900000
-0.022500  5.000000
-0.003000  4.900000
0.043500  5.100000
0.076500  4.900000
0.084000  5.100000
-0.027800  4.900000
-0.198000  5.100000
-0.225000  5.000000
-0.111800  5.000000
-0.028500  4.900000
0.051000  5.200000
0.097500  4.900000
0.066000  5.100000
-0.009100  4.900000
-0.115500  5.000000
-0.079500  5.000000
0.000000  4.900000
0.035200  5.100000
0.101200  4.900000
0.143200  4.900000
0.170200  4.900000
0.138700  4.900000
0.066700  4.900000
0.012000  5.000000
-0.025600  4.900000
-0.046500  5.100000
-0.094500  4.900000
-0.108800  4.900000
-0.030800  4.700000
0.029200  4.900000
0.046500  4.900000
0.066700  4.900000
0.061500  4.900000
0.029200  4.900000
0.002200  5.000000
0.018000  4.800000
0.051700  4.900000
0.078700  5.000000
0.114000  4.900000
0.129700  4.800000
0.133500  4.900000
0.122200  4.700000
0.050200  5.000000
-0.051800  4.700000
-0.054800  5.000000
0.023200  4.900000
0.062200  4.900000
0.113200  4.900000
0.144700  4.800000
0.046500  5.100000
-0.075000  4.800000
-0.093800  5.000000
-0.078800  4.800000
-0.064500  5.000000
-0.000800  4.900000
0.051700  4.900000
0.061500  5.000000
0.095200  5.000000
0.117000  5.000000
0.096700  5.000000
0.009000  4.900000
-0.156800  5.100000
-0.212300  4.900000
-0.126800  5.000000
-0.067500  5.100000
-0.033800  4.900000
-0.003800  5.300000
0.013500  5.000000
0.038200  5.200000
0.023200  5.200000
0.019500  5.000000
0.031500  5.300000
0.047200  5.000000
0.035200  5.100000
-0.040500  5.300000
-0.088500  5.000000
-0.076500  5.300000
-0.036800  5.000000
-0.050300  5.300000
-0.081800  5.200000
-0.031500  5.300000
0.025500  5.300000
-0.005300  5.200000
-0.048000  5.300000
-0.018800  5.300000
0.015700  5.200000
0.002200  5.300000
-0.078800  5.400000
-0.159800  5.400000
-0.170300  5.300000
-0.126000  5.300000
-0.045000  5.400000
0.032200  5.300000
0.081700  5.500000
0.084000  5.400000
0.027700  5.500000
-0.065300  5.300000
-0.072800  5.400000
0.001500  5.500000
-0.012800  5.400000
-0.078800  5.300000
-0.138100  5.300000
-0.093800  5.500000
-0.033800  5.400000
-0.012800  5.300000
0.060000  5.500000
0.054000  5.300000
0.018000  5.500000
-0.008300  5.500000
-0.004600  5.400000
0.012000  5.400000
-0.013500  5.400000
-0.004600  5.500000
0.009000  5.400000
0.003000  5.300000
0.012700  5.600000
0.053200  5.500000
0.081700  5.500000
0.075000  5.300000
0.046500  5.400000
0.004500  5.500000
-0.040500  5.200000
-0.066000  5.500000
-0.015800  5.400000
0.062200  5.500000
0.082500  5.700000
0.059200  5.500000
-0.012800  5.500000
-0.066800  5.400000
-0.018800  5.400000
0.023200  5.400000
-0.007500  5.400000
-0.041300  5.400000
-0.024000  5.600000
0.023200  5.500000
0.064500  5.500000
0.078700  5.500000
0.071200  5.500000
0.082500  5.400000
0.085500  5.500000
0.021700  5.500000
-0.003000  5.300000
0.040500  5.500000
0.042700  5.400000
0.038200  5.600000
0.027000  5.500000
-0.001500  5.500000
-0.011300  5.400000
-0.015000  5.500000
0.005200  5.500000
0.026200  5.400000
0.054000  5.400000
0.069700  5.700000
0.076500  5.300000
0.083200  5.700000
0.095200  5.500000
0.112500  5.600000
0.095200  5.500000
0.063000  5.500000
0.008200  5.600000
0.005200  5.500000
0.006700  5.700000
-0.071300  5.500000
-0.169600  5.700000
-0.195000  5.600000
-0.111000  5.600000
-0.048800  5.800000
-0.000800  5.700000
0.045700  5.600000
0.033000  6.000000
-0.008300  5.700000
-0.020300  5.900000
0.005200  5.800000
-0.010500  5.700000
-0.023300  5.800000
-0.014300  5.800000
-0.027800  6.000000
-0.033000  5.800000
0.012700  6.000000
0.061500  5.800000
0.045700  5.800000
0.005200  6.000000
0.016500  5.900000
0.032200  6.000000
-0.070600  6.000000
-0.146300  5.900000
-0.151500  6.000000
-0.122300  5.900000
-0.083300  6.100000
-0.068300  5.800000
-0.033000  6.000000
-0.041300  6.000000
-0.027800  6.000000
-0.006800  6.300000
0.015000  6.100000
0.036700  6.300000
0.022500  6.000000
0.009700  6.200000
0.006700  6.200000
0.044200  6.100000
0.088500  6.000000
0.108000  6.100000
0.091500  6.300000
0.056200  6.400000
0.021000  6.100000
-0.008300  6.300000
-0.025600  6.100000
-0.069100  6.300000
-0.135000  6.200000
-0.159800  6.100000
-0.097500  6.200000
-0.019500  6.100000
0.021700  6.400000
0.030000  6.400000
0.019500  6.300000
0.003000  6.200000
-0.027800  6.300000
-0.055500  6.100000
-0.040500  6.300000
0.009700  6.200000
0.033000  6.500000
0.035200  6.000000
0.039000  6.400000
0.051700  6.200000
0.046500  6.300000
-0.005300  6.300000
-0.057800  6.100000
-0.082500  6.300000
-0.063800  6.200000
-0.020300  6.300000
0.012700  6.300000
0.025500  6.400000
0.039700  6.300000
0.051000  6.300000
0.057700  6.300000
0.067500  6.400000
0.074200  6.200000
0.072700  6.400000
0.051700  6.200000
0.046500  6.300000
0.052500  6.500000
0.031500  6.400000
0.000700  6.500000
-0.027000  6.300000
-0.057800  6.700000
-0.078800  6.500000
-0.055500  6.500000
-0.008300  6.600000
0.019500  6.500000
0.010500  6.700000
-0.017300  6.400000
-0.044300  6.500000
-0.038300  6.400000
-0.016500  6.400000
-0.007500  6.700000
0.029200  6.400000
0.053200  6.700000
0.061500  6.500000
0.069700  6.700000
0.071200  6.700000
0.085500  6.700000
0.091500  6.700000
0.066700  6.700000
0.020200  6.700000
-0.005300  6.800000
0.015700  6.700000
0.038200  6.800000
0.035200  6.800000
-0.002300  6.700000
-0.061500  6.800000
-0.076500  6.700000
-0.039800  6.800000
-0.031500  6.800000
-0.046500  6.900000
-0.025600  7.000000
-0.003000  6.900000
0.008200  7.100000
0.012700  7.000000
-0.006000  6.900000
-0.014300  6.900000
-0.020300  7.000000
-0.001500  7.100000
0.046500  7.000000
0.105000  7.200000
0.144700  7.100000
0.122200  7.200000
0.025500  7.200000
-0.137300  7.200000
-0.228800  7.200000
-0.176300  7.000000
-0.091500  7.200000
-0.037500  7.200000
-0.026300  7.200000
0.000000  7.300000
0.060000  7.400000
0.076500  7.400000
0.060000  7.300000
0.019500  7.200000
-0.034600  7.500000
-0.018100  7.200000
-0.006800  7.600000
-0.053300  7.500000
-0.086300  7.600000
-0.048000  7.600000
0.015700  7.500000
0.027000  7.800000
0.016500  7.600000
-0.016500  7.800000
-0.044300  7.600000
-0.051100  7.700000
-0.091500  7.700000
-0.129000  7.700000
-0.116300  7.600000
-0.054800  7.700000
-0.003800  7.700000
0.011200  7.800000
0.010500  7.800000
0.004500  7.800000
-0.006000  7.800000
-0.021800  7.700000
-0.024000  7.800000
-0.020300  7.700000
-0.029300  8.000000
-0.038300  7.700000
-0.004600  7.800000
0.024700  7.800000
0.026200  7.900000
0.042700  7.800000
0.049500  7.900000
0.042700  7.900000
0.023200  8.100000
-0.018800  7.900000
-0.029300  8.100000
0.011200  7.800000
0.036700  8.200000
0.039000  8.000000
0.054000  8.000000
0.060000  8.200000
0.075000  8.000000
0.078000  8.100000
0.073500  8.000000
0.082500  8.100000
0.095200  8.100000
0.102700  8.100000
0.093700  8.200000
0.056200  8.200000
-0.016500  8.100000
-0.057800  8.200000
-0.051100  8.100000
-0.050300  8.400000
-0.021800  8.200000
0.025500  8.300000
0.046500  8.300000
0.074200  8.100000
0.086200  8.400000
0.070500  8.200000
0.035200  8.600000
-0.005300  8.400000
-0.015000  8.500000
0.010500  8.800000
0.054000  8.500000
0.061500  8.700000
0.008200  8.700000
-0.043600  8.500000
-0.050300  8.800000
-0.036800  8.600000
-0.021800  8.700000
-0.030000  8.700000
-0.039000  8.700000
-0.028500  9.000000
-0.014300  8.800000
-0.015000  9.200000
-0.023300  9.000000
-0.010500  9.300000
0.009000  9.100000
0.024000  9.200000
0.009700  9.300000
-0.009800  9.200000
-0.000800  9.300000
0.005200  9.400000
-0.019500  9.400000
-0.039000  9.600000
0.018700  9.400000
0.086200  9.500000
0.057000  9.500000
-0.027000  9.500000
-0.078800  9.600000
-0.093000  9.600000
-0.097500  9.800000
-0.085600  9.800000
-0.070600  9.700000
-0.078000  9.900000
-0.082500  9.900000
-0.063000  9.900000
-0.028500  9.900000
0.005200  10.100000
0.021000  10.200000
0.018000  9.900000
-0.001500  10.300000
-0.061500  10.000000
-0.102800  10.200000
-0.070600  10.200000
-0.036800  10.200000
-0.023300  10.300000
-0.045800  10.000000
-0.100600  10.300000
-0.078000  10.300000
-0.042800  10.200000
-0.051100  10.200000
-0.025600  10.200000
-0.006000  10.300000
-0.000800  10.400000
-0.000800  10.500000
-0.009800  10.300000
-0.021800  10.200000
-0.016500  10.400000
0.027000  10.400000
0.057700  10.300000
0.065200  10.300000
0.078000  10.300000
0.082500  10.500000
0.080200  10.300000
0.049500  10.500000
-0.014300  10.400000
-0.070600  10.300000
-0.063800  10.400000
-0.003800  10.300000
0.035200  10.500000
0.059200  10.600000
0.081700  10.400000
0.096000  10.500000
0.099000  10.400000
0.090000  10.800000
0.081700  10.600000
0.075000  10.700000
0.069000  10.500000
0.048000  10.600000
0.025500  10.600000
0.006000  10.400000
-0.007500  10.600000
-0.003800  10.700000
0.004500  10.600000
0.021700  10.700000
0.036700  10.600000
0.045700  10.700000
0.039000  10.700000
0.036700  10.700000
0.075700  10.700000
0.117700  10.700000
0.133500  10.700000
0.134200  10.600000
0.125200  10.900000
0.100500  10.700000
0.061500  10.900000
0.018000  11.000000
-0.022500  10.800000
-0.060000  10.900000
-0.091500  11.000000
-0.070600  10.900000
-0.012000  11.200000
0.003000  11.000000
0.012700  11.200000
0.037500  11.100000
0.040500  11.200000
0.028500  11.200000
0.002200  11.200000
-0.034600  11.400000
-0.067500  11.200000
-0.070600  11.500000
-0.045800  11.500000
-0.013500  11.500000
0.025500  11.700000
0.036700  11.600000
0.035200  11.700000
0.029200  11.700000
0.012000  11.800000
-0.014300  11.800000
-0.051800  11.800000
-0.076500  12.000000
-0.110300  11.900000
-0.146300  12.000000
-0.121500  12.100000
-0.053300  12.000000
0.001500  12.400000
0.042700  12.100000
0.064500  12.300000
0.063700  12.300000
0.055500  12.300000
0.023200  12.400000
-0.025600  12.400000
-0.054000  12.500000
-0.081000  12.500000
-0.137300  12.400000
-0.175600  12.700000
-0.187500  12.400000
-0.161300  12.600000
-0.121500  12.700000
-0.113300  12.600000
-0.108000  12.600000
-0.095300  12.400000
-0.076500  12.800000
-0.051100  12.600000
-0.020300  12.800000
-0.003800  12.600000
0.010500  12.800000
0.018000  12.800000
0.018000  12.700000
0.025500  12.700000
0.034500  13.000000
0.025500  12.700000
-0.027000  13.000000
-0.089300  12.700000
-0.091500  12.800000
-0.047300  12.700000
-0.015000  12.900000
-0.001500  13.100000
-0.001500  12.900000
-0.008300  12.900000
-0.016500  13.000000
-0.016500  13.000000
-0.012000  13.000000
-0.021000  12.800000
-0.036100  12.900000
-0.036800  13.100000
-0.024800  12.800000
-0.008300  13.000000
0.003700  13.000000
0.018000  13.100000
0.036000  12.900000
0.054000  13.100000
0.070500  13.200000
0.089200  13.000000
0.106500  13.200000
0.110200  12.900000
0.090000  13.200000
0.046500  13.100000
-0.012000  13.100000
-0.048000  13.200000
-0.012000  13.100000
0.042000  13.300000
0.061500  13.100000
0.078000  13.300000
0.087700  13.300000
0.078700  13.100000
0.064500  13.300000
0.057700  13.300000
0.054000  13.300000
0.039700  13.300000
0.027700  13.300000
0.026200  13.500000
0.021000  13.500000
-0.003000  13.300000
-0.001500  13.500000
0.020200  13.500000
0.029200  13.700000
0.046500  13.400000
0.066700  13.700000
0.081700  13.700000
0.090700  13.800000
0.087700  13.700000
0.097500  13.800000
0.102700  14.000000
0.070500  13.900000
0.030700  14.200000
0.018000  14.100000
0.032200  14.000000
0.042700  14.200000
0.054700  14.300000
0.065200  14.300000
0.063700  14.400000
0.063000  14.300000
0.048700  14.500000
0.042000  14.600000
0.039000  14.700000
0.029200  14.500000
0.001500  14.600000
-0.044300  14.800000
-0.079500  14.600000
-0.108000  14.800000
-0.111000  14.800000
-0.087800  15.000000
-0.084000  15.000000
-0.094500  15.200000
-0.104300  15.100000
-0.081800  15.300000
-0.036800  15.000000
-0.008300  15.300000
0.010500  15.100000
0.019500  15.500000
0.031500  15.300000
0.040500  15.400000
0.046500  15.600000
0.041200  15.400000
0.001500  15.600000
-0.078800  15.400000
-0.162000  15.700000
-0.145500  15.400000
-0.079500  15.600000
-0.060000  15.500000
-0.034600  15.700000
0.006700  15.700000
0.026200  15.800000
0.031500  15.700000
0.025500  15.900000
0.019500  15.600000
0.024000  15.800000
0.042000  15.900000
0.045000  15.900000
0.031500  15.900000
-0.006800  15.800000
-0.038300  16.200000
-0.020300  15.800000
-0.035300  16.000000
-0.068300  15.900000
-0.067500  16.100000
-0.053300  16.100000
-0.044300  16.100000
-0.070600  15.900000
-0.114000  16.200000
-0.147800  16.200000
-0.147000  16.200000
-0.147800  16.200000
-0.132000  16.400000
-0.093000  16.300000
-0.086300  16.200000
-0.090000  16.300000
-0.092300  16.200000
-0.095300  16.400000
-0.113300  16.200000
-0.123800  16.700000
-0.095300  16.500000
-0.063000  16.400000
-0.035300  16.400000
-0.010500  16.500000
0.009700  16.500000
0.031500  16.400000
0.042700  16.500000
0.053200  16.400000
0.066700  16.400000
0.067500  16.700000
0.061500  16.400000
0.054000  16.700000
0.060000  16.500000
0.066000  16.800000
0.061500  16.600000
0.069000  16.600000
0.075000  16.600000
0.060000  16.800000
0.045000  16.800000
0.059200  16.800000
0.078000  16.700000
0.084700  16.800000
0.086200  16.900000
0.085500  16.900000
0.084000  17.200000
0.081000  16.900000
0.073500  17.100000
0.063700  16.900000
0.057700  17.100000
0.060700  17.100000
0.060000  17.000000
0.053200  17.400000
0.051000  17.100000
0.049500  17.400000
0.040500  17.200000
0.034500  17.300000
0.033700  17.500000
0.036700  17.400000
0.045700  17.500000
0.048700  17.600000
0.046500  17.700000
0.052500  17.500000
0.059200  17.700000
0.067500  17.900000
0.072700  17.700000
0.057700  17.900000
0.009700  17.900000
-0.029300  17.900000
-0.014300  17.900000
0.023200  18.100000
0.036700  18.100000
0.044200  18.200000
0.036700  18.200000
0.011200  18.500000
-0.006000  18.300000
-0.009800  18.400000
0.000700  18.600000
0.008200  18.600000
0.012000  18.700000
0.003000  18.700000
-0.015000  19.000000
-0.027800  18.800000
-0.029300  18.900000
-0.005300  19.000000
0.012000  19.300000
0.026200  19.200000
0.024700  19.200000
-0.001500  19.300000
0.003700  19.300000
0.024700  19.400000
0.045000  19.300000
0.066000  19.300000
0.072700  19.300000
0.059200  19.600000
0.002200  19.400000
-0.086300  19.600000
-0.166500  19.400000
-0.197300  19.700000
-0.150800  19.600000
-0.119300  19.600000
-0.116300  19.700000
-0.087800  19.700000
-0.063800  19.900000
-0.030000  19.800000
-0.033800  19.700000
-0.042000  20.100000
-0.034600  19.800000
-0.038300  20.000000
-0.045800  20.000000
-0.069100  20.100000
-0.093000  20.200000
-0.120800  20.200000
-0.129000  20.300000
-0.093000  20.300000
-0.039000  20.500000
-0.030000  20.400000
-0.067500  20.400000
-0.102800  20.400000
-0.099000  20.500000
-0.073500  20.500000
-0.045000  20.700000
-0.021000  20.500000
-0.014300  20.800000
-0.001500  20.800000
0.000000  21.000000
-0.003800  21.000000
-0.004600  21.000000
0.004500  21.200000
0.012700  21.000000
0.010500  21.100000
0.010500  21.000000
0.008200  21.300000
0.010500  21.100000
0.018000  21.300000
0.027700  21.200000
0.033000  21.400000
0.037500  21.200000
0.041200  21.500000
0.042700  21.300000
0.044200  21.500000
0.044200  21.300000
0.038200  21.500000
0.027700  21.500000
0.015700  21.400000
0.008200  21.600000
0.006700  21.600000
0.001500  21.600000
-0.006000  21.600000
-0.008300  21.600000
-0.006000  21.600000
-0.003800  21.800000
0.000700  21.800000
0.010500  21.800000
0.018700  21.600000
0.027700  21.900000
0.030700  21.700000
0.031500  21.800000
0.031500  21.700000
0.030000  21.800000
0.029200  22.000000
0.031500  22.000000
0.042000  22.000000
0.052500  22.000000
0.054000  22.100000
0.057000  22.100000
0.065200  22.200000
0.083200  22.200000
0.111700  22.100000
0.129000  22.100000
0.136500  22.300000
0.132000  22.400000
0.102000  22.500000
0.063000  22.400000
0.011200  22.400000
-0.029300  22.600000
-0.030000  22.400000
-0.015800  22.900000
0.000000  22.600000
0.018000  22.900000
0.039000  22.700000
0.057000  22.900000
0.065200  22.900000
0.063700  22.800000
0.048700  23.000000
0.027700  23.100000
-0.002300  22.900000
-0.021800  23.300000
-0.018100  23.100000
-0.033000  23.400000
-0.055500  23.400000
-0.078800  23.300000
-0.106500  23.600000
-0.116300  23.500000
-0.101300  23.600000
-0.087800  23.600000
-0.084800  23.700000
-0.063800  23.600000
-0.055500  23.900000
-0.049500  24.000000
-0.029300  23.900000
-0.018800  23.800000
-0.011300  24.200000
-0.008300  24.000000
-0.005300  24.400000
-0.005300  24.300000
-0.000800  24.500000
0.001500  24.500000
0.000700  24.500000
-0.003000  24.500000
-0.010500  24.500000
-0.003800  24.700000
0.009700  24.600000
0.010500  24.800000
0.003000  24.800000
-0.007500  24.700000
-0.030000  24.700000
-0.046500  25.000000
-0.051800  25.000000
-0.044300  25.100000
-0.021800  25.000000
-0.013500  25.100000
-0.027000  25.200000
-0.046500  25.100000
-0.060000  25.300000
-0.054000  25.200000
-0.038300  25.300000
-0.010500  25.300000
0.012000  25.500000
0.023200  25.300000
0.033000  25.600000
0.035200  25.600000
0.036700  25.600000
0.029200  25.600000
0.019500  25.900000
0.015700  25.700000
0.006700  25.800000
-0.006800  25.700000
-0.019500  25.900000
-0.026300  25.900000
-0.032300  25.800000
-0.038300  25.900000
-0.042000  25.900000
-0.042000  26.100000
-0.042000  25.900000
-0.038300  26.100000
-0.024800  26.100000
-0.011300  26.100000
-0.006800  26.200000
-0.004600  26.400000
-0.005300  26.200000
-0.009800  26.500000
-0.009800  26.100000
-0.012800  26.400000
-0.004600  26.400000
0.015700  26.500000
0.025500  26.500000
0.025500  26.400000
0.032200  26.600000
0.046500  26.400000
0.061500  26.600000
0.069700  26.500000
0.071200  26.600000
0.070500  26.900000
0.067500  26.700000
0.065200  26.900000
0.063000  27.000000
0.057700  26.800000
0.050200  26.900000
0.038200  27.000000
0.032200  27.000000
0.031500  27.200000
0.029200  27.000000
0.025500  27.300000
0.025500  27.100000
0.018000  27.500000
0.003000  27.300000
-0.015800  27.400000
-0.044300  27.400000
-0.063800  27.600000
-0.063000  27.600000
-0.056300  27.700000
-0.049500  27.800000
-0.045800  27.900000
-0.035300  27.700000
-0.018100  28.000000
0.010500  28.100000
0.036700  28.200000
0.049500  28.200000
0.051700  28.100000
0.046500  28.400000
0.048000  28.600000
0.041200  28.700000
0.009000  28.600000
-0.019500  28.600000
-0.006000  28.900000
0.020200  29.000000
0.028500  28.800000
0.033700  29.200000
0.020200  29.000000
0.008200  29.300000
-0.017300  29.100000
-0.069800  29.400000
-0.111800  29.300000
-0.107300  29.500000
-0.068300  29.600000
-0.037500  29.600000
-0.015000  29.700000
-0.004600  29.900000
0.012000  29.800000
0.020200  30.000000
0.023200  30.100000
0.027700  30.200000
0.026200  30.200000
0.029200  30.100000
0.027000  30.500000
0.021000  30.300000
0.012700  30.600000
0.003700  30.600000
-0.006000  30.500000
-0.020300  30.600000
-0.032300  30.600000
-0.039000  30.700000
-0.039000  30.700000
-0.031500  31.000000
-0.020300  30.900000
-0.013500  31.000000
-0.006800  30.900000
-0.001500  31.100000
0.003000  31.000000
0.004500  31.000000
0.005200  31.000000
0.009000  31.200000
0.011200  31.200000
0.015000  31.200000
0.019500  31.200000
0.023200  31.300000
0.021000  31.400000
0.017200  31.200000
0.012000  31.500000
0.004500  31.300000
-0.003000  31.500000
-0.008300  31.500000
-0.004600  31.400000
-0.006000  31.500000
-0.015000  31.600000
-0.021800  31.500000
-0.035300  31.600000
-0.035300  31.500000
-0.027800  31.900000
-0.030800  31.500000
-0.030800  31.700000
-0.027000  31.600000
-0.021000  31.700000
-0.014300  31.800000
-0.007500  31.600000
-0.002300  31.900000
0.003700  31.900000
0.006000  31.900000
0.005200  32.100000
0.002200  32.000000
0.000000  32.000000
-0.001500  32.100000
-0.002300  31.900000
-0.001500  32.200000
0.004500  32.200000
0.010500  32.400000
0.010500  32.200000
0.003000  32.200000
-0.011300  32.300000
-0.012800  32.200000
-0.004600  32.600000
0.000000  32.400000
0.003000  32.500000
0.004500  32.500000
0.004500  32.600000
0.001500  32.600000
-0.000800  32.600000
-0.000800  32.800000
0.000700  32.800000
0.003000  32.800000
0.006700  33.000000
0.013500  32.900000
0.021700  33.000000
0.029200  33.000000
0.030700  33.000000
0.033000  33.300000
0.040500  33.000000
0.038200  33.400000
0.032200  33.300000
0.029200  33.300000
0.035200  33.400000
0.033000  33.600000
0.023200  33.600000
0.014200  33.700000
0.011200  33.600000
0.010500  33.800000
-0.005300  33.700000
-0.025600  33.800000
-0.031500  33.900000
-0.006000  33.900000
0.009700  34.200000
0.012000  34.100000
0.015000  34.100000
0.012700  34.100000
0.017200  34.400000
0.022500  34.400000
0.027000  34.400000
0.024000  34.300000
0.018000  34.400000
0.018000  34.400000
0.018700  34.600000
0.018000  34.500000
0.015000  34.700000
0.007500  34.600000
-0.003000  35.000000
-0.018100  34.700000
-0.036800  34.700000
-0.045800  35.100000
-0.042000  34.800000
-0.034600  35.200000
-0.020300  35.000000
-0.012800  35.200000
-0.015800  35.400000
-0.021000  35.500000
-0.025600  35.500000
-0.025600  35.600000
-0.019500  35.700000
-0.004600  35.900000
0.004500  35.800000
0.012000  35.900000
0.021700  36.100000
0.021000  36.200000
0.018000  36.400000
0.015000  36.200000
0.008200  36.500000
0.003700  36.400000
0.000700  36.700000
-0.004600  36.600000
-0.009100  36.800000
-0.011300  36.800000
-0.013500  36.900000
-0.016500  36.900000
-0.019500  37.100000
-0.014300  37.000000
-0.011300  37.300000
-0.011300  37.200000
-0.008300  37.400000
-0.005300  37.300000
0.000700  37.600000
0.004500  37.600000
0.010500  37.400000
0.018700  37.700000
0.021000  37.600000
0.015700  37.800000
-0.006000  37.900000
-0.036800  37.800000
-0.069800  37.900000
-0.096800  38.000000
-0.112500  38.000000
-0.117800  38.200000
-0.109500  38.200000
-0.095300  38.400000
-0.083300  38.400000
-0.065300  38.500000
-0.047300  38.600000
-0.040500  38.600000
-0.031500  38.600000
-0.033000  38.600000
-0.027000  39.100000
-0.010500  38.900000
0.000700  39.100000
0.009700  39.100000
0.012700  39.200000
0.016500  39.200000
0.021000  39.300000
0.021700  39.300000
0.018000  39.600000
0.015700  39.600000
0.014200  39.600000
0.003000  39.800000
-0.004600  39.600000
0.004500  39.900000
0.019500  39.800000
0.028500  40.000000
0.032200  40.000000
0.031500  40.200000
0.033700  40.200000
0.039000  40.300000
0.045000  40.200000
0.048700  40.500000
0.045000  40.300000
0.042700  40.600000
0.040500  40.400000
0.034500  40.900000
0.027700  40.700000
0.033700  41.000000
0.043500  40.900000
0.048000  41.000000
0.052500  41.100000
0.055500  41.000000
0.048000  41.200000
0.033700  41.200000
0.015700  41.400000
-0.000800  41.400000
-0.018800  41.600000
-0.029300  41.600000
-0.024800  41.700000
-0.012000  41.600000
0.003700  41.900000
0.015700  41.800000
0.023200  42.000000
0.023200  42.000000
0.021700  42.000000
0.021000  42.200000
0.019500  42.000000
0.012000  42.400000
0.008200  42.200000
0.018000  42.300000
0.026200  42.500000
0.030000  42.500000
0.033000  42.500000
0.035200  42.500000
0.030700  42.500000
0.024000  42.600000
0.015700  42.500000
0.005200  42.800000
-0.003000  42.800000
-0.014300  42.600000
-0.024800  42.700000
-0.024000  42.900000
-0.022500  42.900000
-0.028500  43.000000
-0.042000  43.000000
-0.058500  43.000000
-0.066000  43.200000
-0.057800  43.100000
-0.037500  43.100000
-0.024000  43.200000
-0.021800  43.400000
-0.017300  43.300000
-0.014300  43.600000
-0.005300  43.400000
0.001500  43.700000
0.005200  43.600000
0.008200  43.600000
0.009700  43.800000
0.014200  43.600000
0.016500  43.900000
0.019500  43.800000
0.022500  44.000000
0.021700  43.800000
0.024000  44.000000
0.024000  44.100000
0.025500  44.200000
0.030000  44.000000
0.030700  44.300000
0.029200  44.000000
0.029200  44.500000
0.026200  44.200000
0.021700  44.400000
0.015700  44.500000
0.010500  44.400000
0.003000  44.400000
-0.009800  44.400000
-0.023300  44.500000
-0.037500  44.300000
-0.050300  44.500000
-0.057800  44.700000
-0.061500  44.600000
-0.053300  44.600000
-0.036800  44.700000
-0.015000  44.700000
0.005200  44.800000
0.018700  44.800000
0.029200  45.000000
0.026200  44.900000
0.016500  45.000000
0.003700  45.100000
-0.013500  45.000000
-0.023300  45.000000
-0.014300  45.000000
0.001500  45.200000
0.011200  45.200000
0.019500  45.200000
0.023200  45.200000
0.021700  45.300000
0.020200  45.300000
0.024000  45.500000
0.029200  45.500000
0.030000  45.600000
0.027700  45.400000
0.027000  45.700000
0.027000  45.500000
0.021700  45.700000
0.021700  45.600000
0.027000  45.800000
0.020200  45.900000
0.001500  45.800000
-0.025600  45.900000
-0.052500  45.800000
-0.062300  45.900000
-0.062300  45.900000
-0.057800  46.100000
-0.042800  45.900000
-0.026300  46.100000
-0.009100  45.900000
0.009700  46.500000
0.019500  46.200000
0.024000  46.300000
0.031500  46.300000
0.035200  46.400000
0.035200  46.500000
0.035200  46.200000
0.032200  46.600000
0.027700  46.500000
0.025500  46.800000
0.019500  46.700000
0.014200  46.800000
0.003000  46.800000
-0.015000  46.800000
-0.029300  46.700000
-0.036800  46.800000
-0.046500  46.800000
-0.063000  47.100000
-0.071300  47.100000
-0.075800  47.000000
-0.070600  47.100000
-0.066000  47.000000
-0.049500  47.300000
-0.027800  47.100000
-0.010500  47.300000
0.008200  47.400000
0.015000  47.500000
0.021700  47.400000
0.026200  47.500000
0.033700  47.500000
0.040500  47.700000
0.045700  47.600000
0.048000  47.800000
0.043500  47.600000
0.038200  47.900000
0.033000  47.800000
0.027700  48.000000
0.019500  48.000000
0.012700  47.900000
0.001500  48.100000
-0.011300  48.000000
-0.018800  48.300000
-0.024800  48.200000
-0.036100  48.200000
-0.049500  48.200000
-0.057000  48.200000
-0.048000  48.500000
-0.035300  48.500000
-0.027800  48.500000
-0.021800  48.700000
-0.020300  48.500000
-0.018100  48.700000
-0.016500  48.700000
-0.015000  48.800000
-0.011300  48.800000
-0.008300  48.800000
-0.003000  49.000000
-0.000800  49.000000
-0.000800  49.000000
-0.001500  49.100000
0.002200  49.100000
0.006000  49.100000
0.007500  49.100000
0.010500  49.400000
0.013500  49.300000
0.016500  49.300000
0.015700  49.500000
0.015700  49.400000
0.014200  49.400000
0.008200  49.400000
0.003700  49.500000
-0.002300  49.600000
-0.009100  49.500000
-0.021800  49.700000
-0.034600  49.600000
-0.042800  49.800000
-0.050300  49.700000
-0.054000  49.800000
-0.038300  49.800000
-0.021800  49.800000
-0.016500  49.900000
-0.010500  49.900000
-0.009100  49.900000
-0.006800  50.200000
-0.004600  50.100000
-0.003000  50.200000
-0.000800  50.300000
0.001500  50.200000
0.006700  50.300000
0.009700  50.400000
0.013500  50.300000
0.019500  50.500000
0.023200  50.400000
0.024000  50.700000
0.027700  50.500000
0.030000  50.800000
0.030700  50.800000
0.027000  50.800000
0.016500  51.000000
0.004500  50.800000
-0.011300  50.900000
-0.029300  51.000000
-0.033000  51.000000
-0.022500  51.100000
-0.004600  51.100000
0.012000  51.200000
0.019500  51.300000
0.027700  51.300000
0.033000  51.400000
0.040500  51.200000
0.045700  51.600000
0.048000  51.300000
0.050200  51.700000
0.047200  51.600000
0.040500  51.600000
0.034500  51.600000
0.023200  51.500000
0.011200  51.800000
0.006700  51.700000
0.006700  51.700000
0.009700  51.900000
0.006700  51.900000
0.002200  51.900000
-0.003000  52.000000
-0.008300  52.000000
-0.014300  52.200000
-0.027800  51.800000
-0.038300  52.400000
-0.040500  52.200000
-0.033000  52.500000
-0.023300  52.400000
-0.017300  52.400000
-0.012000  52.500000
-0.008300  52.300000
-0.005300  52.600000
-0.006800  52.600000
-0.008300  52.600000
-0.009100  52.600000
-0.003800  52.600000
0.003000  52.600000
0.001500  52.800000
0.001500  52.700000
0.000700  52.900000
0.003000  52.700000
0.003000  53.000000
0.000000  52.700000
-0.003000  52.900000
-0.006800  53.000000
-0.009100  52.900000
-0.012000  53.100000
-0.023300  53.000000
-0.034600  53.300000
-0.036800  53.300000
-0.028500  53.300000
-0.020300  53.300000
-0.009100  53.400000
0.003000  53.400000
0.004500  53.300000
0.007500  53.200000
0.007500  53.600000
0.008200  53.500000
0.011200  53.800000
0.011200  53.700000
0.012000  53.700000
0.012000  53.800000
0.011200  53.900000
0.010500  53.900000
0.012700  53.900000
0.014200  54.000000
0.014200  54.000000
0.014200  54.100000
0.013500  54.100000
0.012000  54.100000
0.010500  54.200000
0.010500  54.300000
0.009000  54.100000
0.007500  54.400000
0.004500  54.200000
0.003000  54.500000
0.001500  54.500000
-0.000800  54.400000
0.000700  54.500000
-0.001500  54.500000
-0.006800  54.500000
-0.014300  54.600000
-0.018100  54.500000
-0.016500  54.500000
-0.015800  54.600000
-0.010500  54.900000
-0.010500  54.700000
-0.006800  54.900000
-0.001500  55.000000
0.001500  54.900000
0.003700  55.100000
0.005200  55.000000
0.009000  55.100000
0.010500  55.200000
0.012700  55.100000
0.016500  55.300000
0.016500  55.200000
0.015700  55.400000
0.018000  55.400000
0.018700  55.400000
0.019500  55.400000
0.022500  55.400000
0.025500  55.600000
0.025500  55.500000
0.025500  55.700000
0.029200  55.700000
0.031500  55.700000
0.031500  55.900000
0.028500  55.600000
0.024000  56.100000
0.019500  55.700000
0.012700  55.900000
0.005200  56.100000
-0.004600  55.900000
-0.014300  56.100000
-0.018100  56.000000
-0.018100  56.000000
-0.016500  56.200000
-0.012800  56.100000
-0.012800  56.200000
-0.014300  56.100000
-0.016500  56.300000
-0.016500  56.200000
-0.016500  56.200000
-0.018800  56.500000
-0.019500  56.600000
-0.021800  56.600000
-0.026300  56.500000
-0.027800  56.600000
-0.027800  56.700000
-0.027800  56.800000
-0.025600  56.800000
-0.023300  57.000000
-0.018100  56.800000
-0.012000  57.100000
-0.008300  57.000000
-0.006800  57.300000
-0.006800  57.100000
-0.011300  57.200000
-0.015800  57.100000
-0.013500  57.300000
-0.006000  57.500000
0.000700  57.400000
0.008200  57.700000
0.007500  57.600000
0.008200  57.800000
0.007500  57.800000
0.001500  57.700000
-0.001500  57.800000
-0.008300  57.800000
-0.012800  57.700000
-0.012000  58.000000
-0.001500  57.900000
0.009700  58.000000
0.014200  58.000000
0.018000  58.000000
0.017200  58.000000
0.017200  58.000000
0.014200  58.100000
0.012000  58.000000
0.010500  58.500000
0.009700  58.200000
0.010500  58.200000
0.010500  58.400000
0.009700  58.500000
0.005200  58.400000
0.004500  58.600000
0.004500  58.400000
0.006700  58.500000
0.009000  58.600000
0.006700  58.700000
0.006000  58.700000
0.004500  58.800000
0.000700  58.900000
-0.003000  58.700000
-0.003000  59.000000
-0.004600  58.900000
-0.003000  59.100000
0.000700  59.100000
0.003000  58.900000
0.005200  59.300000
0.006000  59.100000
0.010500  59.300000
0.012000  59.400000
0.012700  59.300000
0.012700  59.400000
0.013500  59.400000
0.012700  59.700000
0.012700  59.400000
0.012000  59.500000
0.009000  59.700000
0.007500  59.600000
0.003000  59.800000
-0.000800  59.700000
-0.003000  59.700000
-0.006000  59.800000
-0.008300  59.900000
-0.010500  59.800000
-0.016500  59.900000
-0.019500  59.800000
-0.021800  60.000000
-0.023300  59.700000
-0.020300  59.900000
-0.018100  59.800000
-0.017300  60.100000
-0.018100  60.100000
-0.018100  60.000000
-0.018100  60.200000
-0.019500  60.000000
-0.015800  60.300000
-0.017300  60.200000
-0.021800  60.100000
-0.018100  60.300000
-0.015000  60.100000
-0.010500  60.400000
-0.006800  60.300000
-0.005300  60.500000
-0.003000  60.500000
-0.001500  60.500000
0.000700  60.500000
0.004500  60.400000
0.009000  60.800000
0.012000  60.600000
0.012700  60.600000
0.012700  60.700000
0.015700  60.600000
0.018000  60.800000
0.016500  61.000000
0.017200  60.800000
0.015000  60.800000
0.014200  60.800000
0.015700  60.900000
0.014200  61.000000
0.012700  61.100000
0.007500  61.100000
0.003700  61.000000
-0.001500  61.300000
-0.006800  60.900000
-0.009100  61.200000
-0.013500  61.100000
-0.015800  61.200000
-0.018100  61.300000
-0.019500  61.400000
-0.018800  61.200000
-0.015800  61.400000
-0.012000  61.400000
-0.008300  61.400000
-0.005300  61.400000
-0.003800  61.500000
-0.004600  61.600000
-0.004600  61.800000
-0.004600  61.700000
-0.000800  61.600000
0.003700  61.900000
0.002200  61.700000
0.005200  61.800000
0.006000  61.600000
0.009000  61.800000
0.009700  61.800000
0.009700  61.900000
0.010500  62.000000
0.012700  62.000000
0.015000  61.900000
0.015700  62.100000
0.016500  62.000000
0.015700  62.100000
0.015700  61.900000
0.015700  62.200000
0.012700  62.100000
0.012700  62.100000
0.012700  62.200000
0.010500  62.200000
0.009000  62.400000
0.006000  62.200000
0.000000  62.200000
-0.002300  62.200000
-0.006800  62.400000
-0.009100  62.200000
-0.009800  62.400000
-0.010500  62.200000
-0.010500  62.500000
-0.012800  62.400000
-0.014300  62.600000
-0.018800  62.500000
-0.023300  62.700000
-0.023300  62.700000
-0.025600  62.600000
-0.025600  62.800000
-0.029300  62.700000
-0.030800  62.900000
-0.030800  62.800000
-0.030800  62.800000
-0.027800  62.900000
-0.024000  63.000000
-0.020300  63.000000
-0.018100  63.000000
-0.015800  63.200000
-0.015800  63.200000
-0.012800  63.100000
-0.012000  63.200000
-0.011300  63.100000
-0.008300  63.300000
-0.006800  63.300000
-0.006800  63.300000
-0.004600  63.500000
0.000000  63.500000
0.005200  63.500000
0.007500  63.500000
0.011200  63.600000
0.014200  63.800000
0.019500  63.600000
0.024000  63.900000
0.026200  63.700000
0.027700  63.700000
0.030000  64.000000
0.033000  63.900000
0.033000  64.200000
0.033000  63.800000
0.031500  64.000000
0.028500  64.000000
0.027700  64.300000
0.027700  64.200000
0.029200  64.200000
0.030700  64.300000
0.027700  64.300000
0.024000  64.300000
0.020200  64.300000
0.018000  64.300000
0.012700  64.500000
0.008200  64.400000
0.005200  64.600000
0.001500  64.600000
-0.003000  64.400000
-0.006800  64.700000
-0.010500  64.400000
-0.014300  64.700000
-0.016500  64.500000
-0.016500  64.500000
-0.019500  64.600000
-0.022500  64.700000
-0.025600  64.600000
-0.026300  64.800000
-0.024000  64.700000
-0.020300  64.800000
-0.015000  64.700000
-0.012000  64.900000
-0.010500  64.600000
-0.008300  65.100000
-0.003000  64.900000
0.001500  65.000000
0.006700  65.000000
0.008200  65.100000
0.012000  65.200000
0.010500  65.100000
0.011200  65.100000
0.012000  65.200000
0.012000  65.200000
0.012700  65.200000
0.010500  65.400000
0.008200  65.400000
0.006000  65.500000
0.006000  65.300000
0.006700  65.600000
0.003700  65.400000
0.001500  65.800000
0.001500  65.600000
0.003000  65.700000
0.002200  65.900000
0.000700  65.700000
0.000700  66.000000
0.001500  66.000000
0.000000  66.000000
-0.005300  65.700000
-0.008300  66.000000
-0.009100  66.100000
-0.009800  66.000000
-0.009800  66.000000
-0.009800  66.100000
-0.010500  66.200000
-0.009800  66.200000
-0.009100  66.200000
-0.010500  66.200000
-0.012000  66.300000
-0.011300  66.200000
-0.011300  66.500000
-0.009100  66.300000
-0.005300  66.500000
-0.005300  66.600000
-0.006800  66.600000
-0.005300  66.800000
-0.003000  66.600000
-0.001500  66.700000
-0.001500  66.800000
-0.000800  66.800000
0.001500  67.000000
0.004500  66.800000
0.003700  67.000000
0.004500  66.900000
0.003000  67.000000
0.003000  67.000000
0.006700  67.100000
0.006700  67.300000
0.007500  67.200000
0.009000  67.200000
0.009000  67.200000
0.010500  67.400000
0.012000  67.400000
0.015700  67.300000
0.016500  67.400000
0.016500  67.500000
0.015700  67.500000
0.013500  67.600000
0.012700  67.500000
0.009700  67.700000
0.008200  67.700000
0.008200  67.700000
0.005200  67.700000
0.001500  67.700000
-0.000800  67.700000
-0.000800  67.900000
-0.005300  68.000000
-0.006800  67.900000
-0.008300  67.900000
-0.009100  68.200000
-0.009800  67.800000
-0.009800  67.900000
-0.009100  68.000000
-0.010500  67.900000
-0.012000  68.000000
-0.012000  68.000000
-0.012000  67.900000
-0.013500  68.000000
-0.012800  67.900000
-0.010500  68.000000
-0.005300  68.200000
0.000000  68.100000
0.000000  68.000000
0.003700  68.000000
0.009700  68.100000
0.014200  68.000000
0.017200  68.200000
0.020200  68.200000
0.020200  68.100000
0.021700  68.100000
0.021000  68.100000
0.016500  68.300000
0.014200  68.100000
0.009000  68.300000
0.006000  68.200000
0.005200  68.500000
0.002200  68.200000
-0.001500  68.400000
-0.005300  68.400000
-0.005300  68.400000
-0.006000  68.400000
-0.006800  68.500000
-0.008300  68.300000
-0.011300  68.500000
-0.012800  68.600000
-0.018100  68.500000
-0.020300  68.600000
-0.021000  68.500000
-0.021000  68.700000
-0.023300  68.600000
-0.025600  68.600000
-0.024000  68.600000
-0.023300  68.700000
-0.021800  68.700000
-0.020300  68.700000
-0.016500  68.800000
-0.012800  68.900000
-0.012800  68.600000
-0.010500  69.000000
-0.008300  68.800000
-0.008300  69.000000
-0.006000  68.800000
-0.002300  68.800000
0.001500  69.000000
0.006000  69.000000
0.009000  69.100000
0.009000  68.900000
0.008200  69.200000
0.012000  69.100000
0.014200  69.200000
0.015000  69.100000
0.016500  69.400000
0.014200  69.200000
0.011200  69.300000
0.009700  69.100000
0.008200  69.400000
0.009000  69.300000
0.008200  69.400000
0.006700  69.300000
0.004500  69.300000
0.000000  69.600000
-0.002300  69.400000
-0.007500  69.500000
-0.011300  69.300000
-0.012000  69.500000
-0.012800  69.600000
-0.012800  69.600000
-0.012800  69.400000
-0.013500  69.500000
-0.010500  69.500000
-0.010500  69.600000
-0.005300  69.500000
-0.001500  69.700000
-0.000800  69.600000
0.000000  69.700000
0.000700  69.700000
0.004500  69.700000
0.006700  69.800000
0.006000  69.700000
0.005200  69.800000
0.005200  69.900000
0.006000  69.900000
0.006000  69.900000
0.001500  69.900000
-0.003000  69.700000
-0.003800  70.000000
-0.003000  69.700000
0.000700  70.100000
0.003700  69.900000
0.004500  70.000000
0.003700  70.000000
0.004500  70.200000
0.003700  70.000000
0.003000  70.000000
0.003000  70.100000
0.004500  70.100000
0.006700  70.200000
0.006000  70.100000
0.006700  70.100000
0.006700  70.200000
0.003000  70.400000
0.003000  70.000000
0.001500  70.300000
-0.000800  70.200000
-0.004600  70.300000
-0.005300  70.300000
-0.003000  70.200000
-0.001500  70.300000
0.000000  70.300000
-0.001500  70.500000
-0.005300  70.200000
-0.005300  70.500000
-0.003800  70.300000
0.000700  70.500000
0.003000  70.500000
0.007500  70.300000
0.010500  70.300000
0.013500  70.500000
0.012000  70.500000
0.012700  70.600000
0.015700  70.400000
0.012700  70.500000
0.011200  70.800000
0.010500  70.500000
0.012000  70.800000
0.010500  70.600000
0.010500  70.600000
0.010500  70.600000
0.009000  70.700000
0.005200  70.600000
0.004500  70.600000
0.004500  70.600000
0.004500  70.900000
0.005200  70.600000
0.005200  70.900000
0.004500  70.600000
0.003000  70.800000
0.000700  70.600000
-0.000800  70.900000
-0.003000  70.700000
-0.003000  70.700000
-0.001500  70.900000
-0.004600  70.700000
-0.006000  70.800000
-0.008300  70.700000
-0.009100  70.600000
-0.011300  70.800000
-0.012800  70.800000
-0.012800  70.700000
-0.012000  71.000000
-0.009100  70.700000
-0.007500  71.000000
-0.005300  70.800000
-0.003800  70.900000
-0.003000  71.000000
-0.001500  70.900000
-0.000800  71.000000
-0.001500  70.800000
0.000700  71.100000
0.000700  70.900000
0.001500  71.000000
0.000700  71.100000
0.003000  71.100000
0.003000  71.100000
0.003000  71.100000
0.003700  71.000000
0.004500  71.200000
0.006700  70.900000
0.006000  71.100000
0.007500  71.000000
0.006000  71.100000
0.003700  71.100000
0.001500  71.100000
-0.000800  71.100000
-0.000800  71.100000
-0.001500  71.100000
-0.001500  71.100000
-0.002300  71.100000
-0.001500  71.200000
-0.003000  71.100000
-0.003800  71.100000
-0.004600  71.200000
-0.007500  71.100000
-0.006800  71.300000
-0.008300  71.100000
-0.009100  71.100000
-0.006800  71.100000
-0.008300  71.200000
-0.009100  71.100000
-0.010500  71.200000
-0.010500  71.200000
-0.008300  71.200000
-0.008300  71.300000
-0.006800  71.200000
-0.003000  71.300000
-0.000800  71.200000
-0.001500  71.400000
-0.001500  71.400000
-0.000800  71.300000
-0.001500  71.100000
-0.002300  71.400000
-0.001500  71.100000
0.000700  71.400000
0.003000  71.300000
0.004500  71.400000
0.005200  71.500000
0.005200  71.200000
0.007500  71.500000
0.006700  71.300000
0.004500  71.400000
0.001500  71.400000
0.001500  71.500000
0.004500  71.400000
0.002200  71.400000
-0.001500  71.400000
-0.004600  71.400000
-0.006800  71.400000
-0.008300  71.400000
-0.009100  71.400000
-0.008300  71.500000
-0.008300  71.400000
-0.006000  71.400000
-0.004600  71.500000
-0.001500  71.200000
-0.000800  71.500000
0.003000  71.400000
0.006000  71.500000
0.008200  71.400000
0.012000  71.600000
0.012700  71.500000
0.011200  71.500000
0.010500  71.500000
0.004500  71.500000
-0.000800  71.400000
-0.003000  71.600000
-0.004600  71.400000
-0.005300  71.500000
-0.006000  71.400000
-0.005300  71.500000
-0.004600  71.600000
-0.003000  71.500000
-0.002300  71.500000
0.000000  71.500000
0.000700  71.600000
0.000000  71.600000
-0.003000  71.600000
-0.006000  71.500000
-0.005300  71.600000
-0.006000  71.500000
-0.004600  71.800000
-0.003000  71.400000
-0.002300  71.600000
-0.000800  71.600000
0.000700  71.600000
-0.000800  71.500000
-0.002300  71.500000
-0.001500  71.700000
-0.003000  71.600000
-0.003000  71.700000
-0.001500  71.700000
0.000700  71.600000
0.003000  71.700000
0.003000  71.600000
0.003000  71.700000
0.003000  71.700000
0.001500  71.800000
0.001500  71.700000
0.000000  71.500000
-0.003000  71.700000
-0.001500  71.700000
-0.001500  71.500000
-0.000800  71.600000
0.001500  71.600000
0.003700  71.600000
0.005200  71.600000
0.008200  71.700000
0.006700  71.600000
0.006000  71.500000
0.009000  71.800000
0.010500  71.600000
0.014200  71.700000
0.015000  71.800000
0.012000  71.500000
0.009700  71.800000
0.006700  71.600000
0.005200  71.700000
0.006000  71.700000
0.004500  71.600000
0.005200  71.600000
0.006700  71.700000
0.004500  71.700000
0.005200  71.700000
0.006700  71.700000
0.006700  71.800000
0.005200  71.800000
0.006700  71.600000
0.006000  71.700000
0.005200  71.600000
0.005200  71.800000
0.005200  71.500000
0.004500  71.800000
0.001500  71.600000
0.000000  71.800000
-0.001500  71.700000
-0.001500  71.600000
-0.004600  71.700000
-0.005300  71.500000
-0.006800  71.600000
-0.007500  71.500000
-0.005300  71.600000
-0.005300  71.700000
-0.006000  71.500000
-0.007500  71.500000
-0.007500  71.600000
-0.008300  71.500000
-0.008300  71.700000
-0.006800  71.600000
-0.003800  71.700000
-0.003800  71.600000
-0.003800  71.600000
-0.001500  71.800000
0.000700  71.700000
0.000700  71.700000
-0.000800  71.600000
-0.001500  71.500000
-0.001500  71.900000
-0.003000  71.500000
-0.001500  71.900000
-0.001500  71.500000
-0.001500  71.700000
-0.000800  71.700000
0.000000  71.600000
-0.000800  71.900000
-0.001500  71.500000
-0.003800  71.700000
-0.004600  71.500000
-0.004600  71.700000
-0.003000  71.500000
-0.003800  71.600000
-0.003000  71.600000
-0.001500  71.600000
-0.003800  71.500000
-0.004600  71.500000
-0.003000  71.400000
0.000000  71.600000
0.001500  71.500000
0.003000  71.600000
0.004500  71.600000
0.004500  71.400000
0.003700  71.500000
0.004500  71.400000
0.003700  71.700000
0.003700  71.600000
0.003700  71.800000
0.003000  71.500000
0.001500  71.700000
0.000000  71.500000
-0.000800  71.500000
-0.000800  71.500000
-0.003000  71.700000
-0.003800  71.400000
-0.003000  71.700000
-0.003000  71.400000
-0.002300  71.700000
-0.000800  71.500000
-0.000800  71.600000
-0.000800  71.700000
-0.000800  71.400000
0.000000  71.700000
0.003000  71.500000
0.003000  71.600000
0.003000  71.600000
0.003700  71.500000
0.004500  71.500000
0.006000  71.600000
0.006000  71.400000
0.003700  71.700000
0.003000  71.500000
0.001500  71.700000
0.000700  71.600000
-0.000800  71.600000
-0.001500  71.800000
-0.003000  71.500000
-0.004600  71.700000
-0.005300  71.400000
-0.004600  71.600000
-0.006000  71.500000
-0.007500  71.400000
-0.008300  71.500000
-0.009800  71.500000
-0.007500  71.600000
-0.007500  71.500000
-0.005300  71.400000
-0.005300  71.700000
-0.004600  71.400000
-0.003000  71.600000
-0.004600  71.500000
-0.002300  71.500000
-0.001500  71.700000
-0.003800  71.600000
-0.004600  71.600000
-0.003800  71.500000
-0.003800  71.600000
-0.002300  71.600000
-0.000800  71.500000
-0.000800  71.500000
0.000700  71.400000
-0.000800  71.500000
-0.000800  71.600000
0.000700  71.400000
-0.000800  71.500000
0.000000  71.400000
0.000700  71.400000
-0.003800  71.400000
-0.006800  71.300000
-0.006800  71.500000
-0.003000  71.400000
-0.000800  71.500000
-0.001500  71.400000
0.000000  71.500000
0.003000  71.500000
0.006700  71.500000
0.009000  71.300000
0.012000  71.500000
0.012000  71.400000
0.010500  71.600000
0.010500  71.300000
0.009000  71.400000
0.008200  71.400000
0.006700  71.200000
0.006000  71.500000
0.003700  71.300000
0.001500  71.500000
-0.000800  71.200000
-0.003000  71.300000
-0.004600  71.400000
-0.005300  71.400000
-0.005300  71.200000
-0.003800  71.200000
-0.003800  71.100000
-0.000800  71.500000
-0.000800  71.200000
-0.000800  71.200000
0.001500  71.400000
0.001500  71.200000
0.003700  71.300000
0.004500  71.100000
0.004500  71.200000
0.005200  71.200000
0.006700  71.300000
0.008200  71.200000
0.008200  71.100000
0.009000  71.100000
0.009000  71.400000
0.009000  71.200000
0.009000  71.400000
0.008200  71.200000
0.006700  71.400000
0.003000  71.200000
0.001500  71.400000
0.000000  71.200000
0.000000  71.300000
-0.000800  71.300000
-0.000800  71.200000
0.000700  71.100000
-0.000800  71.200000
-0.001500  71.100000
-0.003800  71.400000
-0.002300  71.200000
-0.003000  71.300000
-0.003000  71.400000
-0.003000  71.200000
-0.005300  71.300000
-0.003800  71.100000
-0.004600  71.100000
-0.004600  71.300000
-0.003000  71.100000
-0.004600  71.400000
-0.003000  70.900000
-0.002300  71.500000
-0.000800  71.100000
-0.000800  71.200000
-0.003000  71.100000
-0.001500  71.100000
-0.000800  71.300000
-0.000800  71.300000
-0.000800  71.200000
-0.002300  71.200000
-0.001500  71.100000
0.000700  71.400000
0.001500  71.300000
0.003700  71.100000
0.003700  71.100000
0.005200  71.100000
0.005200  71.400000
0.004500  71.200000
0.003000  71.100000
0.002200  71.200000
0.001500  71.100000
0.003000  71.300000
0.003700  71.200000
0.001500  71.100000
0.000700  71.300000
-0.001500  71.200000
-0.004600  71.300000
-0.005300  71.100000
-0.005300  71.300000
-0.006800  71.100000
-0.007500  71.100000
-0.006000  71.200000
-0.006800  71.100000
-0.009100  71.100000
-0.009100  71.000000
-0.007500  71.000000
-0.009100  71.100000
-0.010500  71.200000
-0.010500  71.100000
-0.011300  71.100000
-0.009800  71.000000
-0.008300  71.300000
-0.006800  71.100000
-0.004600  71.200000
-0.001500  71.100000
0.000000  71.100000
0.001500  71.200000
0.003000  71.100000
0.003000  71.300000
0.003000  71.000000
0.002200  71.200000
0.003000  71.000000
0.003700  71.100000
0.003700  71.100000
0.004500  71.300000
0.005200  71.200000
0.005200  71.300000
0.004500  71.100000
0.005200  71.200000
0.003700  71.100000
0.003000  71.200000
0.006000  71.200000
0.005200  71.000000
0.005200  71.100000
0.005200  71.100000
0.003700  71.200000
0.005200  71.100000
0.005200  71.000000
0.006000  71.100000
0.007500  71.100000
0.005200  71.100000
0.003000  71.100000
0.005200  71.000000
0.004500  71.100000
0.003000  70.900000
0.000700  71.100000
0.000700  71.100000
0.002200  71.100000
0.003700  71.200000
0.003000  71.000000
0.005200  71.100000
0.006700  71.100000
0.005200  71.000000
0.003000  71.100000
0.001500  71.000000
0.002200  71.100000
0.002200  71.200000
0.000700  71.000000
-0.000800  71.100000
-0.001500  70.900000
0.000700  71.100000
0.001500  71.000000
0.000700  71.000000
0.000000  71.100000
-0.001500  71.000000
-0.003000  71.100000
-0.003800  71.000000
-0.001500  71.100000
-0.000800  70.900000
-0.001500  71.000000
0.000000  71.000000
-0.001500  71.100000
-0.000800  70.800000
-0.000800  70.900000
-0.001500  70.900000
0.000000  71.100000
0.000700  70.800000
0.001500  71.000000
0.000700  70.800000
-0.000800  70.900000
-0.003000  71.100000
-0.004600  70.900000
-0.005300  71.100000
-0.005300  70.900000
-0.006800  70.900000
-0.006800  70.900000
-0.007500  70.800000
-0.008300  70.900000
-0.008300  70.800000
-0.009100  70.800000
-0.009100  70.900000
-0.008300  70.800000
-0.006000  71.000000
-0.004600  70.800000
-0.004600  71.000000
-0.003800  70.900000
-0.002300  70.800000
-0.000800  71.000000
-0.001500  71.100000
-0.001500  70.800000
-0.003000  70.900000
-0.002300  70.800000
-0.000800  70.800000
-0.000800  70.900000
0.000700  70.900000
0.002200  71.100000
0.003000  70.800000
0.003700  71.000000
0.005200  70.700000
0.006000  71.000000
0.006000  71.000000
0.006000  70.800000
0.007500  71.100000
0.007500  70.900000
0.006700  71.100000
0.006700  71.000000
0.006700  71.100000
0.005200  71.000000
0.003700  70.900000
0.003700  70.800000
0.003000  71.100000
0.003000  70.900000
0.001500  71.000000
0.001500  70.800000
0.000700  71.000000
-0.000800  70.800000
-0.001500  70.900000
0.001500  71.000000
0.001500  71.000000
0.000700  71.100000
0.001500  71.000000
0.000000  71.100000
0.002200  71.000000
0.004500  70.800000
0.004500  71.100000
0.003700  71.000000
0.003000  70.900000
0.004500  71.100000
0.005200  70.900000
0.006000  71.100000
0.007500  71.000000
0.007500  71.100000
0.008200  70.700000
0.007500  71.100000
0.009700  70.900000
0.009000  70.800000
0.008200  71.100000
0.008200  70.900000
0.006000  71.100000
0.007500  71.000000
0.006700  71.100000
0.004500  70.900000
0.003700  70.800000
0.003700  70.900000
0.003700  71.100000
0.001500  70.800000
0.000700  71.200000
0.001500  71.000000
-0.001500  71.000000
-0.003000  71.000000
-0.004600  70.900000
-0.004600  71.100000
-0.006800  70.700000
-0.009100  71.000000
-0.011300  70.800000
-0.012000  70.900000
-0.012000  70.900000
-0.014300  71.000000
-0.013500  70.800000
-0.012000  70.900000
-0.012000  70.800000
-0.011300  70.900000
-0.012000  70.600000
-0.013500  71.000000
-0.012800  70.800000
-0.009100  70.800000
-0.009100  70.800000
-0.006000  70.800000
-0.004600  71.100000
-0.005300  70.800000
-0.003000  70.800000
-0.000800  70.800000
0.001500  70.800000
0.003000  70.800000
0.003000  70.800000
0.003700  70.800000
0.003000  70.900000
0.003000  70.700000
0.001500  71.000000
0.000000  70.800000
0.001500  70.900000
0.001500  70.800000
0.002200  70.600000
0.002200  70.800000
0.000700  70.600000
-0.000800  70.800000
-0.001500  70.800000
-0.002300  70.700000
-0.002300  70.900000
-0.001500  70.800000
-0.001500  70.600000
-0.001500  70.800000
-0.003000  70.700000
-0.002300  70.900000
-0.003800  70.700000
-0.001500  70.900000
0.000700  70.800000
0.000000  70.900000
0.000000  70.800000
0.000700  70.600000
-0.000800  71.000000
