File Name: 12gait.log
Channel 3: 'Vasto Medial', 18706 values, engineering units: mV, no filters.
Channel 5: 'Flexo', 18706 values, engineering units: deg, no filters.
Digitals combined (event=16, d=8, c=4, b=2, a=1): 18706 values, .
-0.003000  -9.700000
0.005200  -9.400000
-0.002300  -9.500000
-0.006800  -9.500000
-0.018800  -9.500000
-0.030000  -9.300000
-0.023300  -9.400000
-0.023300  -9.600000
-0.025600  -9.300000
-0.034600  -9.400000
-0.038300  -9.500000
-0.023300  -9.100000
-0.006000  -9.700000
0.003000  -9.200000
-0.001500  -9.200000
0.005200  -9.300000
0.027000  -9.200000
0.025500  -9.200000
0.015700  -9.300000
0.016500  -9.100000
0.004500  -9.500000
-0.019500  -9.300000
-0.033800  -9.100000
-0.027000  -9.400000
-0.020300  -9.100000
-0.007500  -9.300000
0.014200  -9.200000
0.031500  -9.000000
0.044200  -9.300000
0.038200  -8.900000
0.023200  -9.200000
0.005200  -9.100000
-0.000800  -9.100000
0.000700  -9.300000
-0.003000  -9.000000
0.002200  -8.800000
0.006700  -9.100000
0.010500  -8.800000
0.014200  -9.200000
-0.001500  -9.000000
-0.024000  -8.900000
-0.031500  -9.100000
-0.031500  -8.800000
-0.031500  -9.000000
-0.034600  -9.000000
-0.036800  -9.000000
-0.053300  -8.900000
-0.055500  -8.900000
-0.024000  -8.900000
-0.012800  -8.900000
-0.012000  -8.900000
0.006700  -8.900000
0.033000  -9.000000
0.073500  -8.700000
0.093700  -8.900000
0.093000  -8.700000
0.072700  -9.000000
0.033700  -8.400000
0.005200  -8.900000
-0.004600  -8.800000
-0.004600  -8.900000
-0.012000  -8.800000
-0.018800  -8.600000
-0.027800  -8.700000
-0.038300  -8.800000
-0.042000  -8.700000
-0.039000  -8.800000
-0.034600  -8.900000
-0.027000  -8.600000
-0.018100  -9.000000
-0.023300  -8.600000
-0.030000  -8.700000
-0.017300  -8.600000
0.008200  -8.600000
0.038200  -8.900000
0.042000  -8.500000
0.001500  -9.000000
-0.048800  -8.600000
-0.052500  -8.900000
0.002200  -8.700000
0.046500  -8.600000
0.070500  -8.500000
0.081700  -8.600000
0.075000  -8.400000
0.061500  -8.600000
0.039000  -8.600000
0.004500  -8.500000
-0.039000  -8.800000
-0.060800  -8.400000
-0.057000  -8.900000
-0.057800  -8.300000
-0.052500  -8.800000
-0.040500  -8.300000
-0.033800  -8.600000
-0.026300  -8.600000
-0.021800  -8.600000
-0.025600  -8.400000
-0.036100  -8.500000
-0.060800  -8.400000
-0.054000  -8.400000
-0.012000  -8.300000
0.020200  -8.300000
0.048700  -8.500000
0.058500  -8.300000
0.077200  -8.500000
0.108000  -8.300000
0.121500  -8.400000
0.123000  -8.300000
0.100500  -8.200000
0.060700  -8.300000
0.020200  -8.100000
-0.012800  -8.300000
-0.033800  -8.200000
-0.039000  -8.100000
-0.042000  -8.300000
-0.038300  -8.200000
-0.033000  -8.000000
-0.024000  -8.400000
-0.027800  -7.800000
-0.044300  -8.300000
-0.050300  -7.800000
-0.058500  -8.200000
-0.058500  -8.000000
-0.046500  -8.000000
-0.036100  -8.100000
-0.021000  -7.700000
-0.003000  -8.000000
0.011200  -8.000000
0.012000  -7.800000
0.010500  -7.900000
0.016500  -8.000000
0.024700  -7.600000
0.023200  -8.000000
0.010500  -7.600000
0.009000  -7.900000
0.010500  -7.800000
-0.001500  -7.700000
-0.010500  -7.900000
-0.003800  -7.500000
-0.003800  -8.000000
-0.018100  -7.400000
-0.025600  -8.000000
-0.023300  -7.500000
-0.021800  -7.600000
-0.018100  -7.600000
-0.004600  -7.600000
0.006700  -7.400000
0.010500  -7.600000
0.008200  -7.700000
0.000700  -7.400000
0.002200  -7.700000
0.020200  -7.300000
0.017200  -7.700000
0.009000  -7.200000
0.018700  -7.700000
0.011200  -7.500000
0.005200  -7.500000
-0.006000  -7.500000
-0.020300  -7.400000
-0.004600  -7.400000
0.011200  -7.500000
0.020200  -7.400000
0.023200  -7.500000
0.012700  -7.600000
0.008200  -7.300000
0.005200  -7.500000
-0.006800  -7.400000
-0.015000  -7.400000
-0.056300  -7.500000
-0.129800  -7.200000
-0.128300  -7.500000
-0.071300  -7.100000
-0.024800  -7.500000
0.039700  -7.100000
0.076500  -7.500000
0.076500  -7.200000
0.073500  -7.300000
0.073500  -7.400000
0.059200  -7.400000
0.051700  -7.100000
0.059200  -7.400000
0.051700  -7.200000
0.071200  -7.300000
0.065200  -7.200000
0.018000  -7.200000
-0.024000  -7.400000
-0.048800  -7.100000
-0.048000  -7.300000
-0.051800  -7.200000
-0.046500  -7.100000
-0.045000  -7.300000
-0.048000  -7.100000
-0.054800  -7.200000
-0.067500  -7.200000
-0.069100  -7.200000
-0.051100  -7.200000
-0.014300  -7.300000
-0.000800  -6.800000
0.021700  -7.500000
0.054700  -6.900000
0.057700  -7.300000
0.044200  -7.100000
0.030700  -7.100000
0.027000  -7.100000
0.012700  -7.100000
0.003700  -7.200000
0.012000  -7.100000
0.010500  -7.200000
0.000700  -7.300000
-0.000800  -7.200000
-0.009100  -7.100000
-0.015800  -7.500000
-0.018100  -6.800000
-0.023300  -7.200000
-0.023300  -7.200000
-0.015800  -7.200000
-0.008300  -7.200000
-0.023300  -7.100000
-0.049500  -7.400000
-0.048800  -6.900000
-0.038300  -7.400000
-0.034600  -7.000000
-0.030000  -7.200000
-0.014300  -7.300000
0.002200  -7.200000
0.001500  -7.200000
0.018700  -7.200000
0.049500  -7.300000
0.078000  -7.100000
0.070500  -7.400000
0.040500  -7.000000
0.014200  -7.400000
-0.031500  -7.000000
-0.062300  -7.200000
-0.063000  -7.100000
-0.039800  -7.200000
0.010500  -7.200000
0.054000  -7.000000
0.065200  -7.300000
0.045700  -7.100000
0.004500  -7.000000
-0.024800  -7.100000
-0.063800  -7.200000
-0.120800  -7.000000
-0.138800  -7.200000
-0.132000  -7.100000
-0.099800  -7.100000
-0.011300  -7.100000
0.084700  -7.000000
0.183700  -7.300000
0.265500  -6.900000
0.277500  -7.100000
0.240000  -6.900000
0.148500  -7.200000
0.069000  -7.000000
0.010500  -7.000000
-0.023300  -7.000000
-0.031500  -7.200000
-0.045000  -6.800000
-0.053300  -7.200000
-0.060000  -7.100000
-0.056300  -7.100000
-0.055500  -7.100000
-0.054000  -7.000000
-0.055500  -7.100000
-0.055500  -6.800000
-0.060800  -7.000000
-0.071300  -7.100000
-0.066000  -7.000000
-0.067500  -7.200000
-0.065300  -6.800000
-0.051800  -6.900000
-0.035300  -6.900000
-0.023300  -7.000000
-0.010500  -6.800000
0.012000  -7.100000
0.015700  -6.800000
0.005200  -7.200000
0.000700  -6.700000
0.003000  -6.900000
0.016500  -6.400000
0.034500  -6.800000
0.037500  -6.700000
0.023200  -6.700000
0.005200  -6.800000
0.002200  -6.600000
-0.001500  -6.800000
-0.017300  -6.600000
-0.021800  -6.800000
-0.025600  -6.600000
-0.039000  -6.800000
-0.055500  -6.400000
-0.054000  -6.700000
-0.047300  -6.400000
-0.048000  -6.500000
-0.035300  -6.500000
-0.007500  -6.300000
0.037500  -6.500000
0.053200  -6.300000
0.042700  -6.700000
0.048000  -6.100000
0.042000  -6.600000
0.039000  -6.500000
0.053200  -6.300000
0.066700  -6.200000
0.071200  -6.300000
0.059200  -6.200000
0.045700  -6.300000
0.019500  -6.500000
0.000000  -6.200000
-0.008300  -6.300000
-0.023300  -6.200000
-0.033000  -6.600000
-0.036800  -6.000000
-0.033000  -6.300000
-0.030000  -6.100000
-0.024000  -6.400000
-0.012800  -6.100000
-0.010500  -6.200000
-0.012800  -6.300000
-0.012800  -6.200000
-0.009100  -6.100000
-0.012000  -6.300000
-0.009100  -6.200000
0.008200  -6.000000
0.013500  -6.300000
0.009700  -6.100000
-0.000800  -6.200000
-0.001500  -6.100000
0.003700  -6.100000
-0.008300  -6.100000
-0.014300  -6.000000
-0.011300  -6.300000
-0.019500  -5.900000
-0.021800  -6.300000
-0.019500  -6.100000
-0.023300  -6.100000
-0.015000  -6.300000
-0.000800  -6.200000
0.012000  -5.900000
0.024000  -6.200000
0.033000  -5.900000
0.036700  -6.400000
0.019500  -5.800000
0.003700  -6.200000
-0.006000  -6.000000
-0.018100  -6.200000
-0.015000  -6.200000
-0.002300  -6.000000
0.008200  -6.200000
0.000700  -6.000000
-0.009100  -6.000000
-0.012800  -6.000000
-0.025600  -6.100000
-0.016500  -5.900000
0.016500  -6.300000
0.035200  -6.000000
0.031500  -6.100000
0.020200  -6.100000
0.020200  -6.100000
0.019500  -6.300000
0.005200  -5.800000
0.010500  -6.300000
0.033700  -6.000000
0.037500  -6.300000
0.030700  -5.900000
0.014200  -6.000000
-0.032300  -6.200000
-0.091500  -6.200000
-0.137300  -6.300000
-0.139600  -6.200000
-0.102800  -6.400000
-0.075800  -6.000000
-0.057000  -6.500000
-0.027800  -6.000000
0.023200  -6.500000
0.064500  -6.000000
0.084700  -6.300000
0.126700  -6.200000
0.144000  -6.200000
0.148500  -6.300000
0.144000  -6.200000
0.106500  -6.300000
0.055500  -6.300000
-0.000800  -6.400000
-0.030800  -6.400000
-0.043600  -6.500000
-0.045000  -6.100000
-0.046500  -6.500000
-0.048000  -6.300000
-0.040500  -6.300000
-0.035300  -6.400000
-0.027800  -6.300000
-0.037500  -6.300000
-0.048800  -6.100000
-0.031500  -6.600000
-0.023300  -6.200000
-0.027800  -6.500000
-0.021800  -6.300000
-0.013500  -6.300000
-0.006800  -6.400000
-0.009800  -6.500000
-0.013500  -6.300000
-0.004600  -6.500000
-0.006000  -6.200000
-0.017300  -6.300000
-0.023300  -6.300000
-0.009100  -6.400000
0.003000  -6.300000
-0.004600  -6.300000
-0.012000  -6.400000
-0.018800  -6.200000
-0.017300  -6.300000
-0.005300  -6.300000
-0.001500  -6.300000
0.012700  -6.400000
0.027700  -6.200000
0.031500  -6.200000
0.033700  -6.300000
0.030700  -6.300000
0.020200  -6.100000
0.001500  -6.300000
-0.015800  -6.000000
-0.015800  -6.500000
-0.016500  -6.100000
-0.025600  -6.400000
-0.023300  -6.100000
-0.018100  -6.100000
-0.009100  -6.300000
-0.006800  -6.000000
0.001500  -6.100000
0.025500  -6.200000
0.038200  -6.300000
0.050200  -6.200000
0.048000  -6.400000
0.034500  -6.100000
0.035200  -6.500000
0.031500  -6.000000
0.021700  -6.300000
0.011200  -6.200000
-0.009100  -6.200000
-0.018100  -6.300000
-0.021000  -6.100000
-0.024800  -6.400000
-0.014300  -6.000000
-0.006000  -6.500000
-0.012000  -6.300000
-0.018100  -6.300000
-0.023300  -6.300000
-0.022500  -6.200000
-0.032300  -6.200000
-0.049500  -6.300000
-0.053300  -6.300000
-0.057800  -6.100000
-0.056300  -6.400000
-0.025600  -6.000000
0.018700  -6.400000
0.065200  -6.000000
0.082500  -6.300000
0.062200  -6.200000
0.043500  -6.200000
0.031500  -6.300000
-0.002300  -6.200000
-0.038300  -6.300000
-0.045000  -6.100000
-0.048800  -6.000000
-0.016500  -6.300000
0.036700  -6.300000
0.053200  -6.100000
0.051700  -6.300000
0.051000  -6.000000
0.033700  -6.300000
0.000000  -6.100000
-0.008300  -6.200000
-0.008300  -6.300000
-0.004600  -6.100000
0.016500  -6.500000
0.019500  -6.200000
-0.033800  -6.300000
-0.081000  -6.300000
-0.060000  -6.300000
-0.054000  -6.200000
-0.084800  -6.500000
-0.087800  -6.200000
-0.057000  -6.600000
-0.009100  -6.300000
0.024000  -6.300000
0.055500  -6.300000
0.085500  -6.300000
0.096700  -6.400000
0.101200  -6.300000
0.096700  -6.600000
0.068200  -6.300000
0.030700  -6.300000
-0.001500  -6.300000
-0.017300  -6.400000
-0.025600  -6.400000
-0.025600  -6.600000
-0.017300  -6.300000
-0.014300  -6.300000
-0.017300  -6.400000
-0.033000  -6.300000
-0.045000  -6.600000
-0.042000  -6.000000
-0.027000  -6.700000
-0.016500  -6.400000
-0.018100  -6.500000
-0.012000  -6.300000
-0.003800  -6.500000
0.004500  -6.400000
0.009700  -6.300000
0.010500  -6.300000
0.014200  -6.500000
0.006700  -6.400000
-0.004600  -6.200000
-0.005300  -6.500000
-0.012800  -6.100000
-0.042800  -6.500000
-0.087800  -6.300000
-0.100600  -6.400000
-0.073500  -6.300000
-0.057800  -6.200000
-0.054000  -6.500000
-0.040500  -6.100000
0.008200  -6.400000
0.045700  -6.200000
0.035200  -6.200000
0.021700  -6.200000
0.021000  -6.300000
0.044200  -6.300000
0.095200  -6.300000
0.121500  -6.200000
0.111700  -6.200000
0.098200  -6.300000
0.081700  -6.100000
0.063000  -6.300000
0.044200  -6.100000
0.042000  -6.400000
0.033000  -6.100000
0.005200  -6.400000
-0.023300  -6.300000
-0.036100  -6.300000
-0.033800  -6.300000
-0.041300  -6.400000
-0.040500  -6.300000
-0.045000  -6.300000
-0.044300  -6.200000
-0.040500  -6.300000
-0.048800  -6.300000
-0.041300  -6.300000
-0.035300  -6.300000
-0.026300  -6.300000
-0.024000  -6.300000
-0.016500  -6.200000
-0.004600  -6.100000
-0.003000  -6.400000
0.001500  -6.100000
0.006700  -6.400000
0.006000  -6.300000
-0.003800  -6.300000
-0.005300  -6.300000
-0.005300  -6.300000
-0.009100  -6.200000
-0.033000  -6.500000
-0.063800  -6.200000
-0.069800  -6.500000
-0.046500  -6.000000
0.009000  -6.300000
0.052500  -6.100000
0.069000  -6.200000
0.054700  -6.300000
0.016500  -6.100000
-0.023300  -6.300000
-0.035300  -6.300000
-0.021800  -6.200000
-0.003000  -6.300000
0.027000  -6.200000
0.052500  -6.000000
0.061500  -6.400000
0.036700  -6.300000
0.001500  -6.200000
-0.023300  -6.300000
-0.029300  -6.100000
-0.015000  -6.400000
-0.011300  -6.000000
-0.005300  -6.300000
0.009000  -6.200000
0.017200  -6.300000
0.027000  -6.200000
0.029200  -6.300000
0.018000  -6.300000
-0.002300  -6.300000
-0.023300  -6.300000
-0.024000  -6.100000
-0.018100  -6.300000
-0.025600  -6.000000
-0.027800  -6.400000
-0.018100  -6.000000
-0.015800  -6.300000
-0.003000  -6.300000
0.003000  -6.200000
-0.021800  -6.400000
-0.042000  -6.100000
-0.042800  -6.500000
-0.025600  -6.100000
-0.006800  -6.300000
0.010500  -6.400000
0.027000  -6.300000
0.034500  -6.200000
0.031500  -6.300000
0.034500  -6.300000
0.021700  -6.200000
-0.012000  -6.500000
-0.059300  -6.200000
-0.075000  -6.400000
-0.031500  -6.200000
0.008200  -6.600000
0.072000  -6.200000
0.124500  -6.500000
0.117700  -6.200000
0.093000  -6.300000
0.039000  -6.300000
-0.014300  -6.300000
-0.072800  -6.300000
-0.110300  -6.500000
-0.090000  -6.300000
-0.070600  -6.300000
-0.033000  -6.300000
0.030700  -6.200000
0.072700  -6.500000
0.093700  -6.300000
0.091500  -6.400000
0.072000  -6.300000
0.045700  -6.300000
0.029200  -6.600000
0.023200  -6.100000
-0.003800  -6.700000
-0.076500  -6.300000
-0.151500  -6.400000
-0.157500  -6.300000
-0.127500  -6.300000
-0.062300  -6.200000
0.009700  -6.500000
0.042700  -6.200000
0.078000  -6.500000
0.090700  -6.300000
0.053200  -6.300000
0.006700  -6.300000
-0.009100  -6.300000
0.006700  -6.400000
0.032200  -6.200000
0.068200  -6.400000
0.093700  -6.100000
0.079500  -6.300000
0.057700  -6.300000
0.023200  -6.300000
-0.007500  -6.300000
-0.021800  -6.400000
-0.049500  -6.200000
-0.078000  -6.300000
-0.087800  -6.400000
-0.070600  -6.200000
-0.061500  -6.500000
-0.057000  -6.200000
-0.052500  -6.500000
-0.039000  -6.100000
-0.021000  -6.300000
-0.016500  -6.300000
0.010500  -6.300000
0.035200  -6.200000
0.046500  -6.300000
0.049500  -6.200000
0.038200  -6.200000
0.009000  -6.300000
-0.028500  -6.000000
-0.038300  -6.500000
-0.036800  -6.000000
-0.029300  -6.300000
-0.006800  -6.000000
0.012700  -6.300000
0.032200  -6.100000
0.034500  -6.200000
0.030700  -6.200000
0.030700  -6.000000
0.024000  -6.300000
0.006700  -6.100000
-0.015000  -6.300000
-0.018100  -6.100000
-0.016500  -6.100000
-0.012000  -6.000000
-0.009800  -6.300000
-0.016500  -5.900000
-0.028500  -6.200000
-0.038300  -6.200000
-0.038300  -6.100000
-0.049500  -6.100000
-0.074300  -6.000000
-0.085600  -6.300000
-0.055500  -5.900000
-0.024800  -6.300000
0.018000  -5.900000
0.043500  -6.000000
0.024000  -5.900000
-0.029300  -6.100000
-0.095300  -5.900000
-0.080300  -6.200000
-0.047300  -6.000000
0.035200  -6.000000
0.172500  -5.900000
0.243700  -5.800000
0.276700  -6.000000
0.252700  -5.800000
0.202500  -5.900000
0.113200  -5.900000
-0.007500  -6.000000
-0.066800  -6.000000
-0.078800  -5.800000
-0.069800  -5.800000
-0.085600  -6.000000
-0.112500  -6.000000
-0.121500  -6.000000
-0.114800  -5.900000
-0.096800  -5.800000
-0.055500  -6.000000
-0.005300  -5.600000
0.021000  -6.000000
0.019500  -5.600000
-0.034600  -5.900000
-0.131300  -5.700000
-0.175600  -5.900000
-0.141100  -5.800000
-0.081000  -5.800000
0.031500  -5.900000
0.123700  -5.600000
0.155200  -5.800000
0.180000  -5.700000
0.157500  -5.700000
0.102000  -5.400000
0.052500  -5.900000
0.006000  -5.500000
0.003000  -5.800000
0.026200  -5.700000
0.027000  -5.600000
0.019500  -5.600000
-0.012000  -5.400000
-0.031500  -5.800000
-0.045800  -5.400000
-0.066800  -5.900000
-0.057000  -5.500000
-0.051100  -5.600000
-0.042800  -5.600000
-0.029300  -5.500000
-0.027000  -5.500000
-0.026300  -5.700000
-0.025600  -5.400000
-0.019500  -5.400000
-0.012000  -5.700000
-0.006800  -5.500000
-0.003000  -5.700000
-0.001500  -5.400000
0.004500  -5.900000
0.013500  -5.300000
0.016500  -5.700000
0.005200  -5.400000
-0.001500  -5.400000
0.008200  -5.500000
0.022500  -5.400000
0.023200  -5.500000
0.009000  -5.600000
0.013500  -5.600000
0.025500  -5.400000
0.021700  -5.600000
0.008200  -5.400000
-0.010500  -5.600000
-0.018800  -5.400000
-0.017300  -5.500000
-0.012800  -5.600000
-0.012800  -5.300000
-0.016500  -5.700000
-0.033000  -5.400000
-0.051800  -5.400000
-0.050300  -5.400000
-0.051800  -5.400000
-0.048000  -5.500000
-0.023300  -5.700000
0.005200  -5.200000
0.036700  -5.700000
0.068200  -5.400000
0.078700  -5.600000
0.070500  -5.500000
0.058500  -5.400000
0.034500  -5.600000
0.009000  -5.400000
0.000000  -5.700000
-0.006000  -5.400000
-0.010500  -5.600000
-0.008300  -5.600000
-0.014300  -5.500000
-0.025600  -5.600000
-0.016500  -5.400000
-0.008300  -5.400000
-0.023300  -5.400000
-0.026300  -5.700000
-0.014300  -5.400000
-0.029300  -5.800000
-0.096800  -5.400000
-0.171100  -5.700000
-0.166500  -5.400000
-0.107300  -5.700000
-0.024000  -5.400000
0.087700  -5.600000
0.184500  -5.700000
0.225000  -5.400000
0.193500  -5.600000
0.131200  -5.400000
0.071200  -5.600000
0.036700  -5.400000
0.051700  -5.700000
0.054700  -5.400000
0.021000  -5.800000
-0.030800  -5.400000
-0.066800  -5.700000
-0.072800  -5.700000
-0.072800  -5.600000
-0.057000  -5.800000
-0.039000  -5.500000
-0.030800  -5.900000
-0.012800  -5.400000
0.014200  -5.600000
0.004500  -5.600000
-0.005300  -5.700000
0.005200  -5.700000
0.019500  -5.700000
0.037500  -5.600000
0.020200  -5.500000
0.010500  -5.700000
-0.003800  -5.400000
-0.018100  -5.800000
-0.018800  -5.400000
-0.030800  -5.800000
-0.023300  -5.400000
-0.024000  -5.700000
-0.023300  -5.400000
-0.015000  -5.500000
-0.013500  -5.800000
-0.018800  -5.700000
-0.023300  -5.500000
-0.016500  -5.700000
-0.016500  -5.600000
-0.018100  -5.500000
-0.020300  -5.700000
-0.016500  -5.300000
-0.002300  -5.600000
0.003000  -5.500000
-0.000800  -5.500000
-0.004600  -5.700000
-0.003000  -5.200000
-0.007500  -5.700000
-0.012000  -5.300000
-0.010500  -5.700000
-0.008300  -5.400000
-0.008300  -5.500000
-0.005300  -5.400000
-0.010500  -5.500000
-0.021800  -5.300000
-0.012800  -5.600000
0.004500  -5.400000
0.015700  -5.400000
0.031500  -5.600000
0.045700  -5.400000
0.052500  -5.500000
0.043500  -5.300000
0.035200  -5.400000
0.027700  -5.500000
0.013500  -5.400000
-0.001500  -5.400000
-0.015800  -5.300000
-0.017300  -5.400000
-0.022500  -5.500000
-0.027800  -5.300000
-0.016500  -5.200000
-0.005300  -5.400000
-0.000800  -5.100000
0.008200  -5.500000
0.012000  -5.000000
0.001500  -5.400000
-0.010500  -5.200000
-0.015800  -5.400000
-0.016500  -5.400000
-0.024000  -5.300000
-0.023300  -5.500000
-0.021000  -5.200000
-0.014300  -5.300000
-0.003000  -5.400000
-0.004600  -5.200000
0.005200  -5.200000
0.031500  -5.500000
0.046500  -5.400000
0.023200  -5.300000
0.015700  -5.500000
0.028500  -5.100000
0.028500  -5.600000
0.045700  -5.200000
0.053200  -5.700000
0.039000  -5.300000
-0.008300  -5.500000
-0.056300  -5.400000
-0.070600  -5.400000
-0.057000  -5.400000
-0.023300  -5.300000
-0.033000  -5.400000
-0.040500  -5.500000
-0.024000  -5.400000
-0.044300  -5.300000
-0.072100  -5.700000
-0.079500  -5.100000
-0.057000  -5.400000
0.021000  -5.400000
0.108700  -5.600000
0.165000  -5.400000
0.187500  -5.400000
0.156000  -5.700000
0.108700  -5.200000
0.042700  -5.800000
-0.012800  -5.400000
-0.036800  -5.500000
-0.047300  -5.400000
-0.066800  -5.400000
-0.095300  -5.500000
-0.098300  -5.600000
-0.100600  -5.600000
-0.069100  -5.400000
-0.033000  -5.700000
-0.021800  -5.400000
-0.015000  -5.700000
-0.013500  -5.400000
-0.004600  -5.700000
-0.005300  -5.400000
0.016500  -5.700000
0.048000  -5.600000
0.090700  -5.500000
0.106500  -5.400000
0.078700  -5.600000
0.057700  -5.400000
0.020200  -5.500000
-0.015000  -5.400000
-0.036100  -5.400000
-0.027800  -5.500000
-0.031500  -5.400000
-0.043600  -5.600000
-0.042800  -5.400000
-0.043600  -5.600000
-0.038300  -5.500000
-0.040500  -5.400000
-0.042000  -5.600000
-0.046500  -5.300000
-0.030800  -5.600000
-0.005300  -5.500000
0.008200  -5.400000
0.011200  -5.400000
0.008200  -5.700000
-0.000800  -5.400000
-0.023300  -5.800000
-0.027000  -5.300000
-0.024800  -5.600000
-0.035300  -5.400000
-0.035300  -5.500000
-0.010500  -5.600000
0.027700  -5.400000
0.057700  -5.600000
0.084000  -5.400000
0.102700  -5.600000
0.099000  -5.600000
0.081000  -5.500000
0.044200  -5.600000
0.006700  -5.600000
-0.023300  -5.400000
-0.042000  -5.500000
-0.032300  -5.500000
-0.032300  -5.400000
-0.035300  -5.600000
-0.015800  -5.300000
-0.012800  -5.700000
-0.035300  -5.300000
-0.060800  -5.900000
-0.078000  -5.400000
-0.072100  -5.500000
-0.066000  -5.500000
-0.046500  -5.400000
0.005200  -5.400000
0.036700  -5.500000
0.051000  -5.400000
0.066000  -5.300000
0.066000  -5.800000
0.067500  -5.300000
0.063000  -5.700000
0.060000  -5.400000
0.051700  -5.700000
0.021700  -5.600000
-0.009800  -5.500000
-0.038300  -5.700000
-0.026300  -5.300000
-0.006800  -5.800000
-0.011300  -5.400000
-0.009100  -5.600000
-0.012000  -5.400000
-0.021000  -5.500000
-0.029300  -5.500000
-0.020300  -5.700000
-0.010500  -5.500000
-0.010500  -5.400000
-0.024000  -5.600000
-0.060000  -5.400000
-0.068300  -5.700000
-0.035300  -5.400000
-0.005300  -5.800000
0.018000  -5.400000
0.040500  -5.700000
0.050200  -5.400000
0.060700  -5.400000
0.042700  -5.400000
-0.016500  -5.700000
-0.093000  -5.700000
-0.101300  -5.500000
-0.038300  -5.600000
0.003000  -5.400000
0.078000  -5.700000
0.125200  -5.500000
0.096000  -5.800000
0.008200  -5.700000
-0.066800  -5.600000
-0.086300  -5.700000
-0.101300  -5.400000
-0.043600  -5.700000
0.015000  -5.200000
0.062200  -5.700000
0.108000  -5.500000
0.106500  -5.500000
0.106500  -5.600000
0.086200  -5.700000
0.060700  -5.400000
0.033000  -5.800000
0.003700  -5.400000
-0.029300  -5.800000
-0.050300  -5.700000
-0.038300  -5.700000
-0.045800  -5.700000
-0.040500  -5.500000
-0.030800  -5.900000
-0.028500  -5.600000
-0.029300  -5.800000
-0.042800  -5.700000
-0.051800  -5.700000
-0.058500  -5.700000
-0.047300  -5.700000
-0.027000  -5.600000
-0.006800  -5.900000
0.016500  -5.700000
0.032200  -5.600000
0.033000  -5.900000
0.023200  -5.500000
0.006700  -5.900000
-0.009100  -5.400000
-0.009800  -5.900000
-0.004600  -5.700000
0.009000  -5.800000
0.014200  -5.600000
0.006000  -5.700000
0.008200  -5.700000
-0.002300  -5.500000
-0.014300  -5.600000
-0.015800  -5.600000
-0.027000  -5.700000
-0.024800  -5.400000
-0.020300  -5.600000
-0.018800  -5.500000
-0.006800  -5.900000
-0.006000  -5.500000
-0.010500  -5.700000
-0.016500  -5.700000
-0.009100  -5.500000
0.014200  -5.800000
0.036000  -5.400000
0.053200  -5.600000
0.057700  -5.600000
0.051700  -5.700000
0.031500  -5.500000
0.006000  -5.800000
-0.010500  -5.500000
-0.010500  -5.600000
-0.016500  -5.700000
-0.033000  -5.500000
-0.051800  -5.800000
-0.090000  -5.400000
-0.083300  -5.800000
-0.039000  -5.600000
-0.000800  -5.700000
0.046500  -5.500000
0.069700  -5.700000
0.081000  -5.700000
0.080200  -5.700000
0.051700  -5.500000
0.004500  -5.700000
-0.023300  -5.500000
-0.008300  -5.400000
-0.008300  -5.900000
-0.024000  -5.500000
-0.029300  -5.700000
-0.026300  -5.500000
-0.019500  -5.500000
-0.012000  -5.700000
0.014200  -5.300000
0.044200  -5.900000
0.057700  -5.300000
0.052500  -5.700000
0.029200  -5.600000
0.005200  -5.600000
-0.020300  -5.500000
-0.042000  -5.600000
-0.049500  -5.500000
-0.042800  -5.800000
-0.046500  -5.500000
-0.084000  -5.600000
-0.099000  -5.800000
-0.084000  -5.500000
-0.093000  -5.700000
-0.089300  -5.600000
-0.063800  -5.700000
0.006700  -5.700000
0.096700  -5.500000
0.161200  -5.700000
0.189000  -5.700000
0.146200  -5.700000
0.133500  -5.600000
0.130500  -5.500000
0.085500  -5.400000
0.039000  -5.900000
0.008200  -5.400000
-0.016500  -6.000000
-0.053300  -5.600000
-0.060800  -5.800000
-0.054800  -5.700000
-0.051100  -5.800000
-0.045800  -5.800000
-0.027000  -5.600000
-0.019500  -5.900000
-0.029300  -5.500000
-0.026300  -5.600000
-0.035300  -5.900000
-0.061500  -5.700000
-0.096800  -5.600000
-0.090000  -5.900000
-0.057800  -5.700000
-0.016500  -5.700000
0.025500  -5.800000
0.027700  -5.400000
0.030700  -5.800000
0.036700  -5.400000
0.026200  -5.900000
0.008200  -5.500000
0.012000  -5.800000
0.031500  -5.600000
0.038200  -5.700000
0.038200  -5.700000
0.033000  -5.600000
0.018700  -5.600000
-0.006000  -5.700000
-0.017300  -5.700000
-0.020300  -5.400000
-0.015000  -5.700000
0.000700  -5.500000
-0.013500  -5.700000
-0.042000  -5.400000
-0.064500  -5.800000
-0.055500  -5.600000
-0.035300  -5.600000
-0.027800  -5.700000
-0.009800  -5.400000
0.001500  -5.800000
0.021000  -5.700000
0.033000  -5.700000
0.042700  -5.600000
0.066000  -5.500000
0.065200  -5.400000
0.061500  -5.600000
0.060000  -5.600000
0.033700  -5.500000
0.004500  -5.700000
-0.009100  -5.300000
-0.018100  -5.700000
-0.016500  -5.200000
-0.018800  -5.700000
-0.019500  -5.300000
-0.016500  -5.700000
-0.010500  -5.500000
-0.003800  -5.500000
-0.006800  -5.500000
-0.005300  -5.500000
-0.010500  -5.300000
-0.021800  -5.800000
-0.031500  -5.400000
-0.033000  -5.600000
-0.037500  -5.600000
-0.027000  -5.400000
0.000700  -5.600000
0.006700  -5.400000
-0.000800  -5.600000
-0.018800  -5.400000
-0.032300  -5.400000
-0.024800  -5.400000
-0.011300  -5.300000
0.010500  -5.400000
0.046500  -5.400000
0.066700  -5.600000
0.056200  -5.400000
0.021700  -5.600000
-0.022500  -5.300000
-0.036800  -5.700000
-0.040500  -5.100000
-0.028500  -5.500000
0.006000  -5.400000
0.014200  -5.500000
0.013500  -5.500000
0.009000  -5.400000
-0.024000  -5.600000
-0.033000  -5.400000
0.006000  -5.600000
0.031500  -5.400000
0.051700  -5.400000
0.071200  -5.500000
0.057700  -5.700000
0.014200  -5.400000
-0.024000  -5.700000
-0.033800  -5.500000
-0.015800  -5.600000
0.012000  -5.700000
0.027700  -5.200000
0.040500  -5.800000
0.032200  -5.400000
0.003000  -5.800000
-0.021800  -5.500000
-0.047300  -5.800000
-0.045800  -5.800000
-0.029300  -5.700000
-0.020300  -5.700000
-0.009100  -5.700000
-0.006000  -5.700000
-0.006000  -5.600000
-0.016500  -5.900000
-0.021800  -5.600000
-0.025600  -6.000000
-0.027000  -5.700000
-0.019500  -5.700000
-0.018100  -5.900000
-0.009100  -5.600000
-0.002300  -5.900000
-0.012800  -5.700000
-0.042800  -6.000000
-0.075800  -5.800000
-0.082500  -5.900000
-0.059300  -5.700000
-0.015800  -5.700000
0.024000  -5.600000
0.049500  -5.800000
0.066700  -5.900000
0.082500  -5.700000
0.075000  -6.000000
0.054000  -5.600000
0.053200  -5.900000
0.042000  -5.500000
0.022500  -6.000000
-0.014300  -5.500000
-0.086300  -5.900000
-0.105800  -5.800000
-0.046500  -5.600000
0.001500  -5.800000
0.027000  -5.800000
0.052500  -5.800000
0.089200  -5.700000
0.121500  -5.800000
0.102000  -5.500000
0.069000  -5.900000
0.035200  -5.600000
0.008200  -5.800000
0.001500  -5.800000
-0.006000  -5.600000
-0.015800  -5.900000
-0.045800  -5.500000
-0.073500  -5.900000
-0.092300  -5.500000
-0.102800  -5.800000
-0.076500  -5.700000
-0.045800  -5.700000
-0.012000  -5.600000
0.027700  -5.900000
0.057700  -5.400000
0.050200  -5.900000
0.031500  -5.400000
0.027000  -5.900000
0.009700  -5.700000
0.009000  -5.400000
0.006700  -5.800000
-0.005300  -5.300000
-0.014300  -5.800000
-0.024000  -5.400000
-0.021800  -5.500000
-0.018100  -5.600000
-0.012000  -5.600000
-0.017300  -5.700000
-0.017300  -5.600000
-0.009800  -5.600000
-0.008300  -5.700000
-0.009100  -5.600000
-0.005300  -5.500000
-0.003000  -5.900000
-0.018800  -5.500000
-0.031500  -5.700000
-0.042000  -5.500000
-0.045800  -5.700000
-0.024800  -5.400000
-0.000800  -5.700000
0.012700  -5.600000
0.031500  -5.600000
0.045700  -5.500000
0.048000  -5.600000
0.031500  -5.500000
0.014200  -5.400000
-0.016500  -5.800000
-0.068300  -5.400000
-0.075000  -5.700000
-0.045000  -5.200000
-0.006000  -5.700000
0.042000  -5.500000
0.059200  -5.500000
0.038200  -5.600000
0.025500  -5.400000
0.018700  -5.800000
-0.006000  -5.400000
-0.003000  -5.600000
0.027700  -5.600000
0.045700  -5.500000
0.042700  -5.700000
0.024000  -5.800000
-0.001500  -5.600000
-0.012000  -5.700000
-0.000800  -5.700000
0.015000  -5.500000
0.013500  -5.700000
-0.004600  -5.400000
-0.015000  -5.900000
-0.024000  -5.400000
-0.045000  -5.900000
-0.063000  -5.600000
-0.078000  -5.900000
-0.085600  -5.800000
-0.081800  -5.800000
-0.067500  -5.600000
-0.063800  -5.900000
-0.047300  -5.600000
0.016500  -5.700000
0.078700  -5.600000
0.128200  -5.700000
0.154500  -5.600000
0.119200  -5.500000
0.071200  -5.800000
0.039000  -5.700000
0.022500  -5.800000
0.008200  -5.700000
0.006700  -5.600000
0.019500  -5.800000
0.015700  -5.500000
0.001500  -5.700000
-0.027000  -5.800000
-0.042000  -5.600000
-0.057000  -5.400000
-0.057000  -5.900000
-0.037500  -5.400000
-0.021800  -6.000000
0.009000  -5.400000
0.024000  -5.800000
0.030700  -5.400000
0.018000  -5.700000
-0.004600  -5.600000
-0.012000  -5.600000
-0.015800  -5.800000
-0.018100  -5.500000
-0.042800  -5.600000
-0.063000  -5.600000
-0.084000  -5.500000
-0.060800  -5.500000
-0.003800  -5.800000
0.020200  -5.400000
0.042700  -5.800000
0.048000  -5.400000
0.043500  -5.700000
0.033700  -5.700000
0.035200  -5.600000
0.014200  -5.700000
-0.021000  -5.400000
-0.022500  -6.000000
-0.025600  -5.400000
-0.015000  -5.700000
-0.012000  -5.500000
-0.006800  -5.700000
0.024000  -5.700000
0.034500  -5.600000
0.036000  -5.700000
0.034500  -5.500000
0.021000  -5.700000
-0.003000  -5.500000
-0.024000  -5.700000
-0.023300  -5.400000
-0.019500  -5.800000
-0.009800  -5.400000
0.007500  -5.700000
0.012000  -5.500000
0.010500  -5.700000
0.004500  -5.800000
0.003000  -5.700000
-0.003000  -5.500000
-0.008300  -5.500000
-0.015000  -5.600000
-0.023300  -5.500000
-0.019500  -5.600000
-0.016500  -5.400000
-0.015800  -5.700000
-0.028500  -5.500000
-0.051800  -5.600000
-0.072800  -5.700000
-0.062300  -5.400000
-0.033000  -5.900000
0.000700  -5.400000
0.038200  -5.600000
0.057700  -5.400000
0.071200  -5.700000
0.066700  -5.700000
0.029200  -5.600000
-0.012000  -5.400000
-0.012800  -5.700000
0.006700  -5.500000
0.000000  -5.600000
-0.011300  -5.600000
-0.014300  -5.600000
-0.022500  -5.800000
-0.033000  -5.500000
-0.035300  -5.600000
-0.026300  -5.600000
-0.018100  -5.700000
-0.000800  -5.700000
0.022500  -5.500000
0.048700  -5.600000
0.080200  -5.600000
0.075000  -5.700000
0.048000  -5.800000
0.012700  -5.700000
-0.008300  -5.700000
-0.015800  -5.900000
-0.027800  -5.400000
-0.042000  -5.900000
-0.076500  -5.400000
-0.078800  -5.800000
-0.051800  -5.700000
-0.019500  -5.600000
0.016500  -5.900000
0.050200  -5.600000
0.065200  -5.800000
0.043500  -5.700000
0.030700  -5.600000
0.015000  -5.700000
0.016500  -5.900000
0.024700  -5.500000
0.016500  -5.900000
0.008200  -5.600000
0.007500  -5.600000
0.007500  -5.700000
-0.016500  -5.600000
-0.035300  -6.000000
-0.038300  -5.600000
-0.021800  -5.900000
-0.010500  -5.600000
-0.013500  -5.900000
0.005200  -6.000000
0.009700  -5.800000
0.021700  -5.700000
0.043500  -5.800000
0.037500  -5.800000
0.023200  -5.800000
0.013500  -6.000000
0.001500  -5.700000
-0.021800  -6.000000
-0.039800  -5.700000
-0.057800  -6.000000
-0.069100  -5.700000
-0.076500  -5.900000
-0.091500  -5.900000
-0.093800  -5.800000
-0.084000  -6.000000
-0.031500  -5.700000
0.035200  -5.700000
0.085500  -5.700000
0.120000  -5.700000
0.130500  -5.900000
0.126000  -5.900000
0.091500  -5.700000
0.052500  -6.000000
0.023200  -5.900000
-0.019500  -5.700000
-0.050300  -5.800000
-0.052500  -5.500000
-0.046500  -6.000000
-0.041300  -5.700000
-0.037500  -6.000000
-0.033000  -5.600000
-0.027800  -5.800000
-0.020300  -5.800000
-0.003000  -5.700000
0.011200  -5.800000
0.014200  -5.900000
0.008200  -5.500000
0.008200  -5.800000
0.015700  -5.600000
0.016500  -5.600000
0.006700  -5.800000
-0.014300  -5.700000
-0.031500  -5.900000
-0.055500  -5.600000
-0.070600  -5.600000
-0.051800  -5.800000
-0.013500  -5.500000
0.027000  -5.700000
0.045700  -5.600000
0.059200  -5.600000
0.057700  -5.700000
0.033700  -5.700000
0.003000  -5.400000
-0.019500  -5.800000
-0.023300  -5.400000
-0.034600  -5.800000
-0.039800  -5.500000
-0.021800  -5.600000
-0.003000  -5.500000
0.013500  -5.400000
0.025500  -5.700000
0.030700  -5.500000
0.042000  -5.700000
0.039000  -5.600000
0.023200  -5.400000
0.015000  -5.500000
0.001500  -5.500000
-0.005300  -5.200000
-0.012800  -5.800000
-0.021000  -5.500000
-0.027000  -5.600000
-0.048000  -5.700000
-0.070600  -5.400000
-0.074300  -6.000000
-0.064500  -5.400000
-0.044300  -5.700000
-0.006000  -5.300000
0.033700  -5.700000
0.059200  -5.500000
0.069700  -5.400000
0.069700  -5.500000
0.070500  -5.600000
0.068200  -5.600000
0.053200  -5.600000
0.022500  -5.700000
-0.002300  -5.400000
-0.023300  -5.900000
-0.048800  -5.500000
-0.063000  -5.800000
-0.053300  -5.600000
-0.031500  -5.700000
-0.009100  -5.800000
0.024000  -5.400000
0.057000  -5.800000
0.065200  -5.500000
0.044200  -5.700000
0.018700  -5.700000
-0.009800  -5.500000
-0.029300  -5.700000
-0.021000  -5.900000
-0.021000  -5.700000
-0.015800  -5.800000
-0.006800  -5.800000
-0.005300  -5.500000
0.003000  -5.900000
-0.001500  -5.600000
-0.009100  -6.000000
-0.012800  -5.600000
-0.015800  -6.000000
-0.016500  -5.600000
-0.020300  -5.900000
-0.027800  -5.700000
-0.027000  -5.800000
-0.012800  -5.800000
-0.004600  -5.700000
-0.002300  -5.700000
-0.003000  -5.700000
-0.000800  -5.900000
0.009000  -5.600000
0.009000  -5.800000
0.006700  -5.700000
0.003700  -5.900000
-0.003000  -5.700000
-0.004600  -5.700000
-0.007500  -5.900000
-0.006800  -5.700000
-0.004600  -5.900000
-0.003000  -5.700000
-0.001500  -5.900000
-0.002300  -5.900000
-0.004600  -5.800000
-0.001500  -5.700000
0.001500  -5.900000
-0.000800  -5.700000
-0.012000  -5.900000
-0.034600  -5.800000
-0.036100  -5.900000
-0.026300  -6.000000
-0.027000  -5.800000
-0.015000  -5.900000
-0.000800  -5.900000
0.015700  -5.800000
0.024700  -5.900000
0.030700  -5.700000
0.043500  -5.900000
0.053200  -5.900000
0.056200  -5.700000
0.049500  -5.700000
0.032200  -5.900000
0.015700  -5.500000
0.005200  -6.000000
-0.021800  -5.600000
-0.049500  -5.900000
-0.073500  -5.800000
-0.086300  -5.800000
-0.054000  -5.800000
-0.012800  -5.800000
0.033700  -6.000000
0.075000  -5.700000
0.084700  -5.900000
0.054700  -5.900000
-0.010500  -5.900000
-0.041300  -5.900000
-0.040500  -6.100000
-0.019500  -5.800000
0.018000  -5.900000
0.034500  -5.800000
0.048000  -5.900000
0.040500  -6.100000
0.022500  -5.700000
0.017200  -6.100000
0.008200  -5.800000
-0.016500  -6.000000
-0.044300  -5.900000
-0.037500  -5.900000
-0.027000  -6.000000
-0.013500  -5.800000
0.006700  -5.900000
0.022500  -5.900000
0.033000  -6.300000
0.027700  -5.700000
0.010500  -6.000000
-0.012000  -5.800000
-0.026300  -6.000000
-0.040500  -5.800000
-0.051800  -5.800000
-0.044300  -6.000000
-0.036800  -5.700000
-0.043600  -6.200000
-0.051800  -5.800000
-0.038300  -6.200000
-0.006000  -5.900000
0.037500  -5.800000
0.062200  -5.800000
0.070500  -5.800000
0.072000  -5.900000
0.050200  -5.800000
0.026200  -6.100000
0.013500  -5.700000
0.008200  -6.000000
0.000000  -5.500000
-0.009800  -6.100000
-0.014300  -5.800000
-0.025600  -5.900000
-0.029300  -5.900000
-0.027000  -5.800000
-0.027800  -6.300000
-0.024000  -5.700000
-0.019500  -6.000000
-0.012800  -5.800000
-0.007500  -5.900000
0.000700  -5.700000
0.005200  -5.900000
-0.002300  -5.900000
-0.009800  -5.900000
-0.014300  -5.900000
-0.032300  -5.700000
-0.038300  -6.100000
-0.023300  -5.500000
-0.009100  -6.000000
0.000000  -5.600000
0.015700  -5.900000
0.028500  -5.600000
0.006700  -5.700000
-0.018800  -5.900000
-0.000800  -5.800000
0.019500  -5.800000
0.033000  -6.000000
0.046500  -5.700000
0.052500  -5.900000
0.064500  -6.000000
0.063700  -5.800000
0.039700  -5.900000
-0.007500  -5.600000
-0.051800  -5.800000
-0.053300  -6.000000
-0.036800  -5.700000
-0.021800  -6.000000
-0.006800  -5.700000
0.008200  -6.000000
0.019500  -6.000000
0.020200  -5.900000
0.016500  -5.900000
0.001500  -6.100000
-0.013500  -5.800000
-0.019500  -6.100000
-0.018100  -5.600000
-0.014300  -6.000000
-0.013500  -5.900000
-0.014300  -5.800000
-0.012800  -6.100000
-0.009800  -5.900000
-0.009100  -6.100000
-0.010500  -5.800000
-0.009100  -6.000000
-0.005300  -6.100000
-0.006000  -5.900000
-0.008300  -6.000000
-0.006800  -6.100000
-0.008300  -6.000000
-0.006800  -6.100000
-0.000800  -6.000000
-0.005300  -6.000000
-0.016500  -6.300000
-0.019500  -5.900000
-0.027000  -6.300000
-0.044300  -5.800000
-0.050300  -6.200000
-0.064500  -6.100000
-0.070600  -6.000000
-0.035300  -6.100000
0.016500  -6.000000
0.075000  -6.100000
0.110200  -6.000000
0.127500  -6.100000
0.132000  -5.900000
0.114700  -6.200000
0.072700  -5.900000
0.019500  -6.100000
0.009700  -6.000000
0.006700  -6.100000
-0.009100  -6.100000
-0.015800  -5.900000
-0.027000  -6.300000
-0.020300  -5.700000
-0.014300  -6.200000
-0.023300  -6.000000
-0.034600  -6.200000
-0.042000  -6.000000
-0.050300  -6.000000
-0.062300  -6.000000
-0.069800  -6.100000
-0.062300  -6.300000
-0.032300  -5.900000
-0.018800  -6.100000
-0.008300  -5.800000
0.018700  -6.300000
0.036000  -5.900000
0.014200  -6.200000
-0.011300  -5.900000
-0.006000  -6.000000
0.006700  -6.000000
0.021700  -5.800000
0.029200  -6.100000
0.036700  -6.100000
0.043500  -6.000000
0.046500  -5.900000
0.046500  -6.100000
0.036700  -5.900000
0.012700  -5.900000
-0.009100  -6.000000
-0.000800  -5.900000
-0.006800  -6.000000
-0.020300  -5.900000
-0.018100  -6.200000
-0.022500  -5.700000
-0.021000  -6.200000
-0.027800  -5.700000
-0.035300  -5.900000
-0.036100  -6.000000
-0.032300  -5.900000
-0.023300  -6.000000
-0.018100  -6.200000
-0.012000  -5.700000
-0.009100  -6.000000
-0.006000  -6.000000
-0.003000  -5.800000
0.018000  -6.000000
0.042700  -5.900000
0.042000  -6.100000
0.026200  -6.000000
0.002200  -5.900000
-0.015000  -6.100000
-0.021800  -5.700000
-0.013500  -6.000000
0.000700  -6.100000
0.012000  -6.000000
0.016500  -6.000000
0.021700  -6.100000
0.017200  -5.800000
0.011200  -6.200000
0.011200  -5.700000
-0.003000  -6.200000
-0.011300  -5.800000
-0.008300  -5.900000
-0.006800  -6.100000
-0.008300  -5.900000
-0.008300  -6.000000
-0.009100  -5.800000
-0.009100  -6.100000
-0.010500  -6.100000
-0.018100  -6.000000
-0.028500  -6.000000
-0.048000  -5.800000
-0.054000  -5.800000
-0.054000  -6.200000
-0.038300  -6.000000
-0.006800  -5.900000
0.010500  -6.200000
0.021700  -5.900000
0.019500  -6.300000
0.019500  -5.800000
0.033000  -6.300000
0.034500  -5.800000
0.033700  -6.200000
0.046500  -6.100000
0.044200  -5.900000
0.023200  -6.100000
0.001500  -6.000000
-0.009100  -6.200000
0.005200  -6.000000
0.023200  -6.300000
0.025500  -5.900000
-0.004600  -6.300000
-0.060800  -5.900000
-0.083300  -6.200000
-0.078800  -6.000000
-0.071300  -6.000000
-0.048000  -6.300000
-0.003800  -6.000000
0.051700  -6.300000
0.085500  -5.800000
0.123700  -6.100000
0.138000  -6.000000
0.108000  -6.000000
0.077200  -6.100000
0.021700  -6.300000
-0.045800  -6.000000
-0.091500  -6.300000
-0.086300  -6.100000
-0.064500  -6.000000
-0.051800  -6.300000
-0.016500  -6.000000
-0.000800  -6.300000
0.009000  -6.000000
0.031500  -6.300000
0.039000  -5.900000
0.038200  -6.200000
0.028500  -6.200000
0.011200  -6.100000
-0.017300  -6.100000
-0.020300  -6.200000
-0.009100  -6.000000
-0.025600  -6.000000
-0.031500  -6.100000
-0.030000  -6.000000
-0.036800  -6.000000
-0.037500  -5.900000
-0.041300  -6.000000
-0.038300  -6.000000
-0.026300  -6.000000
-0.018800  -6.200000
-0.015800  -5.700000
-0.007500  -6.300000
0.014200  -6.100000
0.025500  -5.800000
0.021700  -6.000000
0.012700  -5.900000
0.008200  -5.700000
0.008200  -6.200000
0.000000  -5.700000
-0.004600  -6.100000
-0.009100  -5.900000
-0.006800  -5.900000
0.015700  -6.100000
0.023200  -5.800000
0.016500  -6.000000
0.003700  -5.900000
-0.004600  -6.000000
-0.014300  -5.900000
-0.024800  -5.900000
-0.020300  -6.000000
-0.011300  -5.900000
0.000700  -5.900000
0.014200  -6.000000
0.027000  -6.000000
0.027000  -5.900000
0.018000  -6.300000
0.015700  -5.700000
0.008200  -6.300000
-0.003000  -5.800000
-0.004600  -6.000000
-0.003000  -5.900000
-0.003800  -5.900000
-0.002300  -6.000000
-0.001500  -5.800000
-0.002300  -6.000000
-0.004600  -5.900000
-0.002300  -6.000000
0.002200  -6.100000
0.000000  -6.100000
-0.004600  -5.800000
-0.009100  -6.200000
-0.012000  -5.800000
-0.011300  -6.000000
-0.012800  -6.000000
-0.017300  -5.900000
-0.022500  -6.200000
-0.024000  -5.700000
-0.028500  -6.100000
-0.039000  -5.700000
-0.036800  -6.200000
-0.018100  -6.000000
0.000700  -6.000000
0.015700  -6.000000
0.026200  -6.000000
0.035200  -5.900000
0.030700  -5.900000
0.006700  -6.100000
-0.004600  -5.900000
-0.011300  -6.300000
-0.015800  -5.800000
-0.005300  -6.200000
0.028500  -5.800000
0.069000  -6.000000
0.091500  -6.000000
0.090700  -6.000000
0.076500  -6.200000
0.054700  -6.000000
0.014200  -6.000000
-0.024000  -6.000000
-0.056300  -5.900000
-0.057800  -6.100000
-0.034600  -6.000000
-0.036800  -5.900000
-0.035300  -6.100000
-0.018800  -6.000000
-0.004600  -6.000000
0.008200  -6.000000
0.012700  -6.000000
0.007500  -6.100000
-0.024000  -6.000000
-0.061500  -6.200000
-0.057800  -5.800000
-0.032300  -6.000000
-0.001500  -6.100000
0.030000  -5.900000
0.034500  -5.900000
0.029200  -6.300000
0.016500  -5.800000
-0.006000  -6.200000
-0.026300  -5.800000
-0.024000  -6.100000
-0.003800  -6.100000
0.012000  -5.900000
0.016500  -6.200000
0.013500  -5.900000
0.012000  -6.000000
0.007500  -5.900000
0.004500  -6.000000
0.000700  -5.900000
-0.003800  -5.900000
-0.009800  -5.900000
-0.019500  -6.100000
-0.018100  -5.900000
-0.005300  -5.900000
-0.003000  -6.000000
-0.004600  -5.900000
-0.000800  -6.000000
0.000000  -5.800000
-0.000800  -6.100000
-0.005300  -5.800000
-0.014300  -6.200000
-0.016500  -6.000000
-0.018100  -6.000000
-0.016500  -6.100000
-0.006800  -6.000000
-0.003000  -6.000000
-0.004600  -6.100000
-0.017300  -5.900000
-0.026300  -5.800000
-0.008300  -6.200000
0.005200  -5.700000
0.013500  -6.200000
0.023200  -5.900000
0.023200  -6.000000
0.020200  -6.000000
0.017200  -6.000000
0.010500  -6.300000
0.007500  -5.800000
0.012000  -6.100000
0.015000  -6.000000
0.014200  -6.000000
0.016500  -5.900000
0.023200  -5.900000
0.012000  -5.900000
-0.005300  -6.000000
-0.012800  -6.200000
-0.008300  -5.900000
-0.000800  -6.000000
-0.011300  -5.800000
-0.027800  -6.300000
-0.045800  -5.800000
-0.069100  -6.200000
-0.076500  -5.900000
-0.066000  -6.000000
-0.046500  -6.100000
-0.006000  -5.800000
0.022500  -6.000000
0.036700  -6.100000
0.063700  -6.000000
0.075000  -6.000000
0.063000  -6.200000
0.027000  -5.900000
-0.001500  -6.100000
0.005200  -5.900000
0.033000  -6.000000
0.057000  -6.100000
0.054000  -5.900000
0.024000  -6.200000
0.007500  -5.900000
-0.008300  -6.300000
-0.037500  -5.900000
-0.044300  -6.200000
-0.040500  -6.000000
-0.027800  -6.000000
-0.022500  -6.000000
-0.010500  -6.200000
0.008200  -5.800000
0.001500  -6.100000
-0.000800  -5.900000
0.004500  -6.000000
0.003700  -5.900000
0.000000  -6.000000
-0.006800  -6.200000
-0.009800  -5.900000
0.005200  -6.200000
0.014200  -5.900000
0.013500  -6.000000
0.012700  -6.000000
-0.009800  -5.900000
-0.035300  -6.000000
-0.040500  -6.000000
-0.036800  -5.900000
-0.033800  -6.000000
-0.018100  -6.100000
0.006700  -5.900000
0.024000  -6.300000
0.031500  -5.700000
0.030000  -6.100000
0.021700  -5.800000
0.009000  -6.100000
-0.006000  -5.900000
-0.007500  -5.900000
0.005200  -6.000000
0.008200  -5.900000
-0.001500  -5.900000
-0.031500  -6.000000
-0.042800  -6.000000
-0.030800  -5.800000
-0.021000  -6.100000
0.004500  -5.600000
0.023200  -6.100000
0.031500  -5.500000
0.033000  -6.000000
0.015700  -5.800000
-0.006000  -6.000000
-0.005300  -5.900000
0.005200  -5.900000
0.008200  -5.900000
0.010500  -5.700000
0.012000  -5.900000
0.000700  -5.900000
-0.014300  -5.800000
-0.012000  -5.900000
-0.011300  -6.000000
-0.012800  -5.800000
-0.003000  -6.100000
0.004500  -5.800000
0.009000  -5.900000
0.003000  -6.000000
-0.005300  -5.800000
-0.006800  -6.200000
0.000000  -5.600000
-0.005300  -6.100000
-0.024000  -5.600000
-0.039000  -5.900000
-0.039000  -5.900000
-0.029300  -5.700000
-0.032300  -5.800000
-0.021800  -5.900000
0.004500  -5.700000
0.024000  -6.000000
0.045000  -5.900000
0.051700  -5.900000
0.048000  -6.000000
0.038200  -5.700000
0.017200  -6.000000
-0.003000  -6.100000
-0.028500  -5.900000
-0.072800  -6.100000
-0.088500  -5.700000
-0.063000  -6.100000
-0.039000  -6.000000
0.003000  -6.000000
0.046500  -6.000000
0.061500  -5.900000
0.051000  -5.600000
0.025500  -6.200000
0.019500  -5.900000
0.016500  -6.000000
-0.000800  -6.000000
-0.014300  -6.000000
-0.005300  -6.300000
0.003700  -5.900000
0.012000  -6.000000
0.042000  -5.900000
0.050200  -5.900000
0.042700  -6.100000
0.036700  -5.900000
0.034500  -6.000000
0.027000  -6.100000
0.009000  -6.000000
-0.012800  -5.900000
-0.028500  -6.300000
-0.040500  -6.000000
-0.051800  -6.300000
-0.055500  -5.800000
-0.045800  -6.200000
-0.029300  -6.000000
-0.009800  -6.100000
0.008200  -6.200000
0.014200  -5.900000
0.012700  -6.300000
0.016500  -6.000000
0.020200  -6.000000
0.006700  -6.300000
-0.019500  -6.000000
-0.033000  -6.000000
-0.033000  -6.200000
-0.030000  -6.100000
-0.018100  -6.200000
-0.009100  -6.300000
-0.002300  -6.000000
0.009000  -6.300000
0.010500  -5.800000
0.010500  -6.300000
0.000700  -6.000000
-0.014300  -6.200000
-0.019500  -6.000000
-0.023300  -6.000000
-0.015000  -6.100000
-0.008300  -6.000000
0.000000  -6.200000
0.009000  -6.100000
0.012700  -6.200000
0.015000  -5.800000
0.005200  -6.300000
0.005200  -5.900000
0.013500  -6.100000
0.018000  -5.900000
0.015700  -6.000000
0.012700  -6.100000
0.010500  -5.800000
0.008200  -6.200000
0.006700  -5.800000
0.007500  -6.100000
0.012700  -5.900000
0.010500  -6.000000
0.001500  -6.000000
-0.015000  -5.900000
-0.022500  -5.900000
-0.027800  -5.900000
-0.039800  -6.000000
-0.015800  -5.700000
0.007500  -6.100000
0.004500  -5.700000
-0.002300  -6.000000
-0.012000  -5.700000
-0.011300  -6.000000
-0.010500  -5.800000
-0.012800  -6.000000
-0.009100  -6.100000
-0.000800  -5.900000
0.000000  -5.900000
0.009000  -5.900000
0.035200  -5.800000
0.042700  -5.900000
0.033000  -6.000000
0.021700  -5.800000
0.004500  -6.100000
-0.010500  -5.900000
-0.039000  -6.000000
-0.064500  -5.800000
-0.057800  -5.900000
-0.033000  -5.900000
-0.005300  -5.700000
0.015700  -6.000000
0.027000  -5.700000
0.015700  -5.800000
0.015000  -5.900000
0.012000  -5.800000
0.005200  -5.800000
0.030700  -6.200000
0.047200  -5.700000
0.050200  -6.000000
0.048000  -5.700000
0.030000  -5.900000
-0.010500  -5.900000
-0.033000  -5.700000
-0.027000  -6.100000
-0.020300  -5.700000
-0.015000  -5.900000
-0.021000  -6.000000
-0.033000  -5.900000
-0.053300  -5.900000
-0.072800  -5.900000
-0.081000  -5.800000
-0.085600  -6.100000
-0.065300  -5.900000
-0.018800  -6.000000
0.028500  -6.000000
0.071200  -5.800000
0.107200  -6.200000
0.125200  -5.700000
0.116200  -6.100000
0.072000  -5.900000
0.033000  -6.100000
0.018000  -5.800000
0.009000  -6.000000
-0.002300  -6.000000
-0.016500  -6.000000
-0.027800  -6.000000
-0.036100  -5.900000
-0.048000  -6.100000
-0.055500  -5.800000
-0.051800  -6.200000
-0.044300  -5.900000
-0.045000  -6.200000
-0.051800  -5.900000
-0.038300  -6.100000
-0.015000  -6.000000
-0.003000  -5.900000
0.012700  -6.300000
0.024000  -5.900000
0.040500  -6.300000
0.066000  -6.000000
0.070500  -6.100000
0.049500  -6.000000
0.029200  -6.000000
0.007500  -5.900000
-0.014300  -6.100000
-0.027800  -6.200000
-0.036800  -6.000000
-0.036800  -6.200000
-0.030800  -6.000000
-0.023300  -6.200000
-0.019500  -5.800000
-0.009100  -6.100000
0.013500  -5.900000
0.021700  -6.200000
0.006700  -6.000000
0.008200  -5.900000
0.017200  -6.000000
0.003700  -5.900000
-0.005300  -5.900000
-0.015800  -6.000000
-0.037500  -6.000000
-0.072100  -5.900000
-0.101300  -6.200000
-0.102800  -6.000000
-0.086300  -6.000000
-0.037500  -6.000000
0.027700  -5.900000
0.086200  -6.100000
0.138700  -5.900000
0.156000  -6.100000
0.141700  -5.700000
0.100500  -6.000000
0.063700  -5.900000
0.030700  -5.900000
-0.003800  -6.000000
-0.002300  -6.200000
-0.004600  -5.800000
-0.005300  -6.200000
-0.006000  -5.900000
-0.010500  -6.100000
-0.012000  -5.900000
-0.028500  -5.900000
-0.033000  -6.100000
-0.036800  -5.800000
-0.038300  -6.100000
-0.034600  -5.800000
-0.039800  -5.900000
-0.041300  -5.900000
-0.035300  -5.900000
-0.024000  -5.900000
-0.012000  -5.900000
-0.010500  -5.700000
-0.012800  -5.900000
-0.010500  -6.000000
-0.013500  -5.700000
-0.008300  -6.000000
0.006000  -5.700000
0.016500  -6.100000
0.015000  -5.600000
-0.003800  -6.000000
-0.016500  -5.800000
-0.025600  -5.900000
-0.048800  -6.000000
-0.063000  -5.900000
-0.039000  -5.800000
-0.008300  -5.800000
0.035200  -6.000000
0.078700  -5.700000
0.081700  -6.100000
0.066000  -5.600000
0.040500  -6.000000
-0.001500  -5.800000
-0.038300  -6.100000
-0.039000  -5.900000
-0.019500  -5.900000
-0.013500  -6.000000
-0.005300  -5.700000
0.016500  -6.100000
0.018000  -5.600000
0.009000  -6.000000
0.002200  -6.000000
-0.012800  -6.000000
-0.016500  -5.900000
-0.003000  -5.900000
0.023200  -6.000000
0.039000  -5.800000
0.043500  -6.000000
0.036000  -5.800000
0.010500  -6.200000
-0.015800  -5.700000
-0.027000  -6.300000
-0.025600  -5.900000
-0.025600  -6.100000
-0.021800  -5.900000
-0.020300  -6.000000
-0.024800  -6.100000
-0.028500  -6.000000
-0.034600  -6.000000
-0.029300  -6.000000
-0.008300  -6.000000
0.009700  -5.900000
0.021000  -6.300000
0.042700  -5.900000
0.049500  -6.000000
0.024000  -6.000000
0.014200  -6.000000
-0.018100  -6.200000
-0.052500  -5.800000
-0.031500  -6.100000
-0.023300  -5.800000
0.001500  -6.200000
0.042700  -6.100000
0.059200  -6.000000
0.063000  -6.000000
0.048000  -5.900000
0.035200  -5.900000
0.005200  -6.100000
-0.015000  -6.100000
-0.019500  -6.000000
-0.030800  -6.000000
-0.032300  -5.900000
-0.027000  -6.100000
-0.014300  -5.900000
-0.004600  -5.900000
0.002200  -6.000000
-0.010500  -5.900000
-0.010500  -6.000000
0.003700  -6.000000
-0.008300  -6.000000
-0.014300  -6.000000
-0.009100  -5.900000
0.003700  -5.900000
0.000000  -6.200000
-0.006800  -5.700000
-0.018800  -6.200000
-0.044300  -5.800000
-0.036800  -6.100000
-0.035300  -6.000000
-0.027800  -6.000000
0.021700  -5.900000
0.060700  -5.800000
0.071200  -5.900000
0.070500  -5.800000
0.069700  -5.900000
0.051000  -6.000000
0.006700  -5.900000
-0.024000  -5.800000
-0.030000  -6.000000
-0.033800  -5.700000
-0.024000  -5.900000
-0.015000  -6.000000
-0.016500  -5.800000
-0.020300  -6.200000
-0.024000  -5.500000
-0.022500  -6.100000
-0.023300  -5.900000
-0.020300  -6.200000
-0.013500  -5.800000
-0.003800  -6.000000
0.000000  -5.800000
-0.004600  -5.700000
-0.009100  -6.000000
-0.005300  -5.800000
-0.001500  -6.000000
0.000700  -5.800000
0.001500  -6.000000
0.000700  -5.500000
0.007500  -6.100000
0.014200  -5.500000
0.019500  -5.800000
0.008200  -5.800000
-0.030000  -5.800000
-0.064500  -5.900000
-0.051800  -5.700000
-0.035300  -5.900000
-0.021800  -5.800000
0.024000  -5.700000
0.051000  -5.700000
0.055500  -5.700000
0.064500  -5.600000
0.049500  -5.900000
0.010500  -5.900000
0.003000  -5.600000
-0.001500  -5.900000
-0.012000  -5.600000
-0.013500  -6.000000
-0.020300  -5.500000
-0.003800  -5.900000
0.011200  -5.600000
0.024000  -5.800000
0.038200  -5.800000
0.033000  -5.900000
0.019500  -5.700000
0.004500  -5.700000
-0.008300  -5.700000
-0.016500  -6.000000
-0.017300  -5.800000
-0.019500  -5.700000
-0.021000  -6.000000
-0.019500  -5.700000
-0.024800  -5.900000
-0.033800  -5.800000
-0.031500  -5.900000
-0.028500  -5.900000
-0.022500  -5.900000
0.000700  -5.900000
0.017200  -5.600000
0.004500  -5.900000
-0.010500  -5.900000
-0.006800  -5.700000
0.009700  -5.800000
0.024700  -6.100000
0.025500  -5.600000
0.018000  -6.000000
0.008200  -5.800000
-0.007500  -6.000000
-0.027000  -5.900000
-0.031500  -5.900000
-0.019500  -5.900000
-0.012000  -5.900000
0.005200  -6.100000
0.027700  -5.900000
0.025500  -5.900000
0.031500  -5.900000
0.039000  -6.000000
0.029200  -5.900000
0.009000  -6.000000
-0.003800  -5.900000
-0.005300  -5.900000
-0.012000  -6.000000
-0.015000  -5.800000
-0.011300  -6.100000
-0.002300  -5.700000
0.005200  -6.100000
0.004500  -5.700000
0.008200  -5.900000
0.014200  -5.900000
0.009700  -6.000000
-0.004600  -5.900000
-0.017300  -6.000000
-0.019500  -6.000000
-0.022500  -5.900000
-0.023300  -6.000000
-0.005300  -5.700000
0.012000  -6.000000
0.008200  -5.900000
0.005200  -5.900000
0.000700  -5.700000
-0.010500  -5.900000
-0.009100  -6.000000
-0.012000  -5.800000
-0.012800  -6.100000
-0.002300  -5.600000
0.003000  -6.100000
0.009700  -5.900000
0.008200  -5.900000
-0.002300  -5.700000
-0.012000  -6.000000
-0.019500  -5.800000
-0.024800  -5.900000
-0.028500  -5.900000
-0.041300  -5.600000
-0.066800  -6.000000
-0.082500  -5.600000
-0.075000  -5.900000
-0.040500  -5.700000
0.003000  -6.000000
0.039700  -5.700000
0.072000  -5.700000
0.093700  -5.900000
0.119200  -5.600000
0.135000  -5.700000
0.118500  -5.800000
0.072700  -5.800000
0.025500  -5.700000
-0.007500  -5.900000
-0.018800  -5.700000
-0.016500  -5.800000
-0.018800  -5.700000
-0.017300  -5.800000
-0.024000  -5.900000
-0.028500  -5.600000
-0.044300  -5.900000
-0.071300  -5.500000
-0.078800  -5.800000
-0.080300  -5.600000
-0.068300  -5.700000
-0.034600  -5.500000
-0.001500  -5.800000
0.026200  -5.700000
0.033000  -5.800000
0.036700  -5.500000
0.046500  -5.800000
0.042700  -5.700000
0.028500  -5.600000
0.009000  -5.700000
-0.008300  -5.500000
-0.021000  -5.900000
-0.021000  -5.500000
-0.015800  -5.700000
-0.013500  -5.700000
-0.006800  -5.600000
0.000000  -5.600000
0.009700  -5.700000
0.012000  -5.500000
0.010500  -5.700000
0.003000  -5.700000
-0.012000  -5.400000
-0.009100  -5.900000
-0.004600  -5.200000
0.000000  -5.900000
-0.002300  -5.400000
-0.007500  -5.900000
-0.013500  -5.500000
-0.036100  -5.700000
-0.061500  -5.700000
-0.058500  -5.700000
-0.033000  -5.700000
-0.003800  -5.400000
0.033000  -5.600000
0.057000  -5.700000
0.071200  -5.700000
0.070500  -5.600000
0.036000  -5.900000
-0.012000  -5.400000
-0.030800  -6.000000
-0.030000  -5.400000
-0.036100  -5.700000
-0.042000  -5.600000
-0.051100  -5.800000
-0.040500  -5.900000
-0.025600  -5.600000
-0.012800  -6.000000
0.017200  -5.700000
0.043500  -5.700000
0.072700  -5.700000
0.090700  -5.900000
0.093000  -5.700000
0.084000  -5.700000
0.057700  -5.900000
0.020200  -5.700000
-0.012800  -6.000000
-0.021800  -5.700000
-0.024800  -6.000000
-0.027000  -5.700000
-0.015800  -6.100000
-0.008300  -5.800000
-0.013500  -6.000000
-0.015800  -5.800000
-0.015000  -5.900000
-0.020300  -6.000000
-0.029300  -6.000000
-0.039000  -5.900000
-0.043600  -6.000000
-0.039000  -5.900000
-0.042000  -5.900000
-0.040500  -6.100000
-0.021800  -5.700000
0.006000  -6.000000
0.037500  -5.900000
0.046500  -6.000000
0.042700  -6.100000
0.027000  -5.800000
0.000700  -5.900000
-0.003800  -5.700000
-0.011300  -6.200000
-0.025600  -5.900000
-0.025600  -5.800000
-0.016500  -6.000000
-0.006800  -6.000000
0.003000  -5.800000
0.021700  -6.100000
0.030000  -5.800000
0.024000  -5.900000
0.018000  -5.900000
-0.003000  -5.800000
-0.021000  -6.000000
-0.033000  -5.900000
-0.030800  -6.000000
-0.014300  -6.000000
-0.004600  -5.800000
0.011200  -6.000000
0.021700  -5.900000
0.018700  -5.900000
0.018700  -5.900000
0.006000  -5.900000
-0.009800  -5.800000
-0.007500  -6.100000
-0.009100  -5.600000
-0.009800  -6.100000
-0.001500  -5.600000
-0.003000  -5.900000
-0.005300  -5.800000
-0.006000  -5.800000
-0.007500  -5.900000
0.001500  -5.700000
0.014200  -5.900000
0.022500  -5.800000
0.021000  -5.900000
0.011200  -5.900000
0.003000  -5.900000
-0.003800  -5.700000
-0.006000  -5.900000
0.003000  -5.800000
0.009000  -5.900000
0.003700  -5.800000
-0.009100  -5.600000
-0.010500  -6.000000
0.002200  -5.500000
0.006700  -6.100000
-0.000800  -5.600000
-0.006000  -5.900000
-0.006800  -5.900000
-0.015800  -5.700000
-0.027800  -5.800000
-0.024000  -5.700000
-0.020300  -5.900000
-0.021800  -5.900000
-0.010500  -6.000000
0.002200  -5.700000
0.012000  -6.100000
0.012700  -5.600000
0.009700  -6.000000
0.008200  -5.800000
0.003700  -5.800000
0.001500  -6.000000
0.001500  -5.700000
-0.004600  -6.000000
-0.008300  -5.700000
-0.012800  -6.000000
-0.015800  -6.000000
-0.015000  -6.000000
-0.012000  -5.800000
-0.001500  -5.900000
0.006700  -5.900000
0.016500  -5.800000
0.024000  -5.900000
0.019500  -5.700000
-0.001500  -6.000000
-0.035300  -5.700000
-0.034600  -6.200000
-0.015800  -5.900000
-0.008300  -6.000000
0.009700  -6.200000
0.036700  -5.900000
0.056200  -6.000000
0.057700  -6.000000
0.033700  -5.800000
-0.010500  -6.000000
-0.034600  -5.900000
-0.030800  -5.800000
-0.035300  -6.000000
-0.043600  -5.900000
-0.042000  -6.000000
-0.027800  -6.000000
-0.018800  -5.900000
-0.012000  -6.100000
-0.014300  -5.800000
-0.009100  -6.200000
0.031500  -5.900000
0.081700  -6.200000
0.097500  -5.900000
0.089200  -6.000000
0.077200  -6.000000
0.038200  -6.000000
-0.002300  -5.800000
-0.021800  -6.000000
-0.033000  -5.900000
-0.039000  -5.900000
-0.033000  -6.100000
-0.031500  -5.800000
-0.030800  -6.000000
-0.022500  -5.900000
-0.013500  -5.900000
-0.009100  -6.000000
-0.018100  -5.800000
-0.027000  -6.000000
-0.047300  -5.800000
-0.062300  -6.000000
-0.047300  -5.800000
-0.016500  -6.000000
0.004500  -5.800000
0.021700  -6.000000
0.050200  -5.700000
0.057700  -6.000000
0.045700  -5.800000
0.048700  -6.000000
0.045700  -6.000000
0.025500  -5.800000
0.008200  -6.000000
0.001500  -5.700000
-0.014300  -6.100000
-0.022500  -5.900000
-0.004600  -5.900000
0.006000  -6.000000
0.000000  -6.000000
-0.013500  -5.900000
-0.020300  -6.000000
-0.015800  -5.900000
-0.010500  -5.900000
0.009700  -6.200000
0.018000  -5.600000
0.005200  -6.200000
0.000000  -5.700000
-0.007500  -6.000000
-0.015000  -5.900000
-0.012800  -6.000000
-0.011300  -6.000000
-0.009800  -5.900000
-0.009100  -5.900000
-0.012000  -6.000000
-0.012800  -5.900000
-0.012800  -5.900000
-0.011300  -6.100000
-0.012000  -5.700000
-0.016500  -6.000000
-0.012800  -5.900000
-0.001500  -5.900000
0.003000  -6.100000
0.001500  -5.700000
-0.008300  -6.100000
-0.013500  -5.700000
-0.014300  -6.100000
-0.018100  -5.800000
-0.018100  -6.000000
-0.016500  -6.000000
-0.010500  -5.900000
0.003000  -5.900000
0.009000  -5.900000
0.021000  -5.900000
0.025500  -5.700000
0.016500  -6.000000
0.018000  -5.700000
0.015700  -6.000000
0.005200  -5.700000
0.006000  -6.000000
0.013500  -5.900000
0.012700  -6.000000
0.003000  -6.000000
-0.005300  -5.700000
0.010500  -6.000000
0.030700  -5.700000
0.030700  -5.900000
0.027700  -5.900000
0.021000  -5.900000
0.012700  -5.700000
-0.009100  -5.900000
-0.045800  -5.700000
-0.091500  -5.800000
-0.123000  -5.900000
-0.100600  -5.800000
-0.046500  -5.900000
0.024000  -5.700000
0.090000  -6.000000
0.126700  -5.700000
0.138700  -6.000000
0.126700  -5.700000
0.081700  -5.800000
0.015700  -5.900000
-0.009800  -5.900000
-0.012000  -6.000000
-0.033800  -5.900000
-0.045000  -5.900000
-0.054000  -5.900000
-0.060800  -6.000000
-0.062300  -5.800000
-0.054000  -6.200000
-0.031500  -5.900000
-0.016500  -6.000000
-0.000800  -5.900000
0.009000  -5.800000
0.012000  -6.100000
-0.014300  -5.700000
-0.042800  -6.000000
-0.039800  -5.900000
-0.027000  -6.000000
0.005200  -5.900000
0.021700  -6.000000
0.023200  -5.800000
0.027700  -6.000000
0.015700  -5.700000
0.003000  -6.100000
-0.012000  -5.800000
-0.020300  -5.900000
-0.019500  -5.900000
-0.011300  -5.700000
0.011200  -6.000000
0.040500  -5.800000
0.042000  -5.900000
0.012000  -6.000000
0.001500  -5.900000
-0.000800  -5.900000
0.009000  -5.700000
0.021700  -5.900000
0.012000  -5.800000
0.018000  -5.900000
0.018700  -5.800000
0.009700  -6.000000
-0.008300  -5.700000
-0.027000  -6.100000
-0.025600  -5.700000
-0.027800  -5.800000
-0.030800  -5.700000
-0.027800  -5.700000
-0.012000  -5.800000
0.006700  -5.700000
0.019500  -5.800000
0.031500  -5.700000
0.024000  -5.700000
0.009700  -5.600000
0.005200  -6.000000
-0.001500  -5.700000
-0.006000  -6.000000
-0.012800  -5.700000
-0.012800  -5.900000
-0.006800  -5.800000
-0.007500  -5.600000
-0.009100  -5.900000
-0.003000  -5.600000
0.004500  -6.000000
-0.000800  -5.500000
-0.007500  -5.800000
-0.012000  -5.700000
-0.018100  -5.800000
-0.014300  -5.700000
-0.009100  -5.600000
0.000700  -5.700000
0.006700  -5.600000
0.004500  -5.900000
0.003000  -5.600000
-0.000800  -6.000000
-0.002300  -5.600000
-0.002300  -5.900000
0.001500  -5.600000
0.003700  -5.700000
0.005200  -5.800000
0.005200  -5.600000
0.003000  -5.700000
0.002200  -5.600000
0.000700  -5.600000
-0.001500  -5.800000
-0.003000  -5.900000
-0.002300  -5.600000
-0.004600  -5.800000
-0.004600  -5.700000
-0.003800  -5.700000
-0.003000  -5.700000
-0.000800  -5.600000
0.001500  -5.900000
0.000700  -5.500000
-0.000800  -6.000000
-0.000800  -5.600000
-0.002300  -5.800000
-0.000800  -5.700000
-0.000800  -5.700000
0.002200  -5.700000
0.006700  -6.000000
0.005200  -5.800000
0.005200  -5.900000
0.003000  -5.800000
0.000700  -5.700000
-0.000800  -5.900000
-0.003800  -5.600000
-0.007500  -6.000000
-0.007500  -5.700000
-0.006800  -5.700000
-0.008300  -5.800000
-0.005300  -5.700000
-0.009800  -6.000000
-0.018800  -5.800000
-0.020300  -5.900000
-0.025600  -5.900000
-0.024000  -5.700000
-0.009800  -5.700000
0.002200  -6.000000
0.021700  -5.800000
0.030700  -6.100000
0.030000  -5.700000
0.033000  -5.900000
0.025500  -5.700000
0.014200  -6.000000
0.005200  -6.000000
-0.007500  -5.800000
-0.018100  -6.000000
-0.019500  -5.700000
-0.014300  -5.900000
-0.010500  -6.000000
-0.010500  -5.900000
-0.012800  -5.700000
-0.020300  -6.200000
-0.016500  -5.700000
-0.003000  -6.000000
0.003000  -6.000000
0.002200  -6.000000
-0.002300  -6.100000
-0.012000  -5.900000
-0.016500  -6.300000
-0.014300  -5.800000
-0.014300  -6.300000
-0.012800  -5.900000
-0.009800  -6.100000
-0.004600  -6.000000
0.006700  -6.100000
0.013500  -6.100000
0.019500  -6.100000
0.016500  -6.100000
0.011200  -6.100000
0.011200  -6.300000
0.008200  -6.100000
0.009000  -6.400000
0.007500  -5.900000
0.003700  -6.400000
0.005200  -6.200000
0.008200  -6.200000
0.004500  -6.200000
0.000700  -6.100000
-0.005300  -6.300000
-0.015000  -6.300000
-0.015800  -6.200000
-0.010500  -6.200000
-0.006000  -6.300000
0.000700  -6.100000
-0.000800  -6.300000
-0.010500  -6.200000
-0.012800  -6.300000
-0.012000  -6.300000
-0.009800  -6.200000
-0.005300  -6.400000
-0.000800  -6.000000
0.004500  -6.300000
0.005200  -6.200000
0.003700  -6.500000
0.002200  -6.400000
0.003700  -6.300000
0.002200  -6.300000
-0.003000  -6.300000
-0.006800  -6.300000
0.000700  -6.400000
0.006700  -6.300000
0.005200  -6.500000
0.009700  -6.400000
0.008200  -6.300000
0.007500  -6.600000
0.006700  -6.400000
0.003000  -6.600000
0.003000  -6.500000
-0.001500  -6.400000
-0.001500  -6.700000
-0.000800  -6.400000
-0.002300  -6.600000
-0.004600  -6.700000
-0.003800  -6.700000
-0.000800  -6.600000
0.006000  -6.700000
0.012000  -6.400000
0.014200  -6.900000
0.009700  -6.500000
0.000700  -6.800000
-0.002300  -6.800000
-0.003000  -6.600000
-0.003800  -6.900000
-0.005300  -6.800000
-0.008300  -7.100000
-0.008300  -6.700000
-0.006800  -6.800000
-0.008300  -6.800000
-0.009800  -7.100000
-0.006800  -7.000000
-0.004600  -7.100000
-0.001500  -7.000000
0.000700  -7.000000
0.004500  -7.100000
0.004500  -6.800000
0.001500  -7.300000
0.000700  -6.800000
-0.003000  -7.500000
-0.006800  -7.000000
-0.006800  -7.300000
-0.005300  -7.100000
-0.005300  -7.400000
-0.009100  -7.400000
-0.012800  -7.300000
-0.004600  -7.400000
0.008200  -7.400000
0.011200  -7.600000
0.005200  -7.200000
0.004500  -7.700000
0.007500  -7.300000
0.000700  -7.700000
0.001500  -7.400000
0.005200  -7.600000
0.002200  -7.800000
0.001500  -7.600000
0.000000  -8.000000
0.001500  -7.700000
0.001500  -8.000000
0.001500  -7.800000
0.003000  -8.000000
0.000700  -8.000000
-0.001500  -8.100000
-0.003000  -8.000000
-0.002300  -8.200000
-0.002300  -8.200000
-0.003000  -8.200000
-0.006800  -8.500000
-0.009100  -8.300000
-0.006000  -8.700000
-0.005300  -8.400000
-0.001500  -8.900000
0.000700  -8.500000
0.002200  -9.000000
0.001500  -8.900000
-0.007500  -8.800000
0.004500  -9.000000
0.009000  -9.000000
-0.000800  -9.000000
-0.004600  -9.000000
-0.014300  -9.300000
-0.014300  -9.000000
-0.009100  -9.500000
-0.003000  -9.400000
0.001500  -9.500000
0.005200  -9.500000
0.010500  -9.500000
0.008200  -9.800000
0.009000  -9.400000
0.008200  -9.900000
0.005200  -9.500000
0.010500  -10.000000
0.015000  -10.000000
0.012700  -9.900000
0.006700  -10.200000
0.003000  -10.400000
-0.006800  -10.000000
-0.010500  -10.400000
-0.015800  -10.300000
-0.027800  -10.500000
-0.033000  -10.400000
-0.030800  -10.500000
-0.016500  -10.800000
-0.000800  -10.600000
0.009000  -10.800000
0.012000  -10.800000
0.014200  -11.000000
0.012700  -11.000000
0.003700  -11.200000
0.007500  -11.200000
0.009000  -11.200000
0.008200  -11.500000
0.008200  -11.500000
0.001500  -11.700000
0.001500  -11.300000
0.003000  -11.900000
-0.001500  -11.500000
-0.005300  -12.100000
-0.000800  -11.800000
-0.004600  -11.900000
-0.006800  -12.300000
0.000000  -12.000000
-0.006000  -12.300000
-0.006000  -12.300000
-0.001500  -12.400000
-0.004600  -12.400000
-0.006800  -12.600000
-0.011300  -12.600000
-0.015000  -12.900000
-0.020300  -12.800000
-0.016500  -13.000000
-0.010500  -12.900000
-0.013500  -12.900000
-0.010500  -13.300000
-0.003000  -13.100000
-0.004600  -13.600000
0.002200  -13.200000
0.018000  -13.700000
0.009700  -13.400000
-0.004600  -13.600000
0.003700  -13.800000
0.020200  -13.900000
0.020200  -13.800000
0.006700  -13.800000
0.003000  -14.100000
0.003000  -13.800000
0.003000  -14.300000
0.001500  -13.900000
0.000700  -14.500000
0.005200  -14.100000
-0.001500  -14.500000
-0.000800  -14.400000
0.008200  -14.500000
0.007500  -14.500000
-0.000800  -14.600000
-0.012800  -14.800000
-0.021800  -14.900000
-0.024800  -14.900000
-0.020300  -15.000000
-0.011300  -15.200000
-0.005300  -15.100000
-0.008300  -15.300000
-0.014300  -15.100000
-0.000800  -15.600000
0.019500  -15.500000
0.018000  -15.600000
0.014200  -15.800000
0.010500  -15.500000
0.009000  -16.000000
0.015700  -15.800000
0.009000  -16.300000
0.004500  -16.100000
0.004500  -16.400000
-0.000800  -16.400000
-0.000800  -16.400000
0.003000  -16.300000
-0.005300  -17.100000
-0.014300  -16.700000
-0.030800  -17.000000
-0.042000  -17.000000
-0.027800  -17.200000
-0.029300  -17.400000
-0.036100  -17.300000
-0.018100  -17.700000
0.001500  -17.600000
0.012700  -18.000000
0.022500  -17.900000
0.028500  -18.000000
0.025500  -18.100000
0.028500  -18.300000
0.027700  -18.200000
0.021000  -18.600000
0.015700  -18.500000
0.005200  -18.700000
-0.005300  -19.000000
-0.009800  -18.800000
-0.013500  -19.300000
-0.018100  -19.200000
-0.009100  -19.600000
-0.004600  -19.400000
-0.015800  -19.700000
-0.030800  -19.800000
-0.029300  -19.600000
-0.006800  -19.900000
0.006000  -20.200000
0.000000  -20.300000
-0.006800  -20.200000
-0.004600  -20.600000
-0.008300  -20.400000
-0.014300  -20.900000
-0.018100  -20.700000
-0.008300  -21.000000
0.004500  -21.100000
-0.003800  -21.100000
0.015700  -21.400000
0.044200  -21.200000
0.031500  -21.600000
0.021700  -21.300000
0.024700  -21.800000
0.012000  -21.800000
0.002200  -22.100000
-0.001500  -21.900000
-0.003000  -22.100000
-0.002300  -22.100000
-0.000800  -22.300000
0.000000  -22.400000
-0.000800  -22.400000
-0.003000  -22.800000
-0.010500  -22.500000
-0.012000  -23.000000
-0.005300  -22.700000
-0.003000  -23.100000
0.006000  -23.000000
0.000000  -23.200000
-0.014300  -23.400000
-0.015800  -23.500000
-0.027000  -23.500000
-0.027000  -23.600000
-0.018100  -23.800000
-0.012800  -23.600000
-0.004600  -23.900000
-0.003800  -23.800000
0.003000  -23.900000
0.027000  -24.000000
0.027700  -24.200000
0.005200  -24.300000
0.003000  -24.200000
0.005200  -24.800000
0.002200  -24.300000
0.001500  -24.900000
-0.003800  -24.700000
-0.003800  -24.800000
-0.003800  -24.700000
-0.001500  -24.900000
0.000700  -25.000000
0.000000  -25.400000
0.003000  -25.100000
0.012000  -25.400000
0.000700  -25.400000
-0.020300  -25.500000
-0.024800  -25.600000
-0.015800  -25.700000
0.006700  -26.000000
0.012000  -25.800000
0.001500  -26.000000
-0.004600  -26.200000
-0.003000  -26.100000
0.014200  -26.400000
0.027000  -26.400000
0.023200  -26.400000
0.027700  -26.600000
0.020200  -26.800000
0.006700  -26.700000
-0.000800  -27.000000
-0.009100  -26.700000
-0.012800  -27.300000
-0.022500  -27.000000
-0.021800  -27.400000
-0.016500  -27.300000
-0.008300  -27.400000
-0.003800  -27.700000
-0.003000  -27.500000
0.004500  -27.800000
0.004500  -27.900000
0.001500  -27.900000
-0.000800  -28.200000
0.003700  -28.300000
0.002200  -28.200000
-0.004600  -28.600000
-0.001500  -28.400000
-0.003000  -28.700000
-0.012800  -28.800000
-0.000800  -28.700000
0.009700  -29.100000
-0.006800  -28.800000
-0.006800  -29.300000
-0.010500  -29.100000
-0.009800  -29.500000
-0.003800  -29.500000
-0.012800  -29.500000
-0.015000  -29.700000
-0.012000  -29.800000
-0.011300  -29.800000
-0.017300  -29.900000
-0.015800  -30.200000
0.010500  -30.000000
0.040500  -30.400000
0.032200  -30.200000
0.000700  -30.600000
-0.005300  -30.600000
-0.003000  -30.800000
0.007500  -30.900000
0.018700  -30.800000
0.014200  -31.200000
0.008200  -31.000000
0.005200  -31.300000
-0.008300  -31.300000
-0.012800  -31.400000
-0.010500  -31.500000
-0.012800  -31.800000
-0.014300  -31.700000
-0.018100  -32.000000
-0.018800  -32.100000
-0.015000  -32.100000
-0.003000  -32.300000
0.003700  -32.100000
0.000000  -32.700000
-0.000800  -32.300000
-0.001500  -32.900000
0.002200  -32.500000
0.003000  -32.900000
0.000700  -32.900000
-0.001500  -33.000000
-0.003000  -33.100000
-0.003000  -33.300000
-0.006000  -33.200000
-0.006000  -33.600000
-0.012000  -33.600000
-0.015800  -33.500000
-0.006800  -33.800000
0.009000  -33.700000
0.023200  -34.100000
0.021000  -34.000000
0.012700  -34.100000
0.012700  -34.200000
0.015700  -34.200000
0.016500  -34.500000
0.015700  -34.500000
0.016500  -34.600000
0.008200  -34.800000
0.000700  -34.700000
-0.005300  -34.800000
-0.019500  -34.900000
-0.019500  -34.800000
-0.013500  -35.400000
-0.001500  -35.000000
0.005200  -35.400000
-0.008300  -35.100000
-0.017300  -35.500000
-0.020300  -35.600000
-0.015800  -35.600000
-0.009800  -35.800000
-0.001500  -35.800000
0.012000  -35.900000
0.012000  -36.000000
0.016500  -36.100000
0.015700  -36.000000
-0.006800  -36.200000
-0.016500  -36.500000
-0.019500  -36.400000
-0.006800  -36.800000
0.006700  -36.400000
0.003000  -36.900000
0.010500  -36.600000
0.024000  -36.900000
0.027700  -36.800000
0.015000  -37.000000
0.008200  -37.200000
0.005200  -37.200000
-0.007500  -37.500000
-0.008300  -37.400000
-0.011300  -37.600000
-0.020300  -37.400000
-0.010500  -37.800000
0.009000  -37.800000
0.013500  -38.000000
-0.001500  -38.100000
-0.006000  -38.000000
0.008200  -38.400000
0.024700  -38.100000
0.020200  -38.600000
0.005200  -38.300000
0.003000  -38.700000
0.001500  -38.600000
0.003000  -38.700000
-0.009100  -38.800000
-0.012800  -39.100000
-0.012000  -39.100000
-0.018100  -38.900000
-0.020300  -39.500000
-0.013500  -39.100000
0.012700  -39.700000
0.025500  -39.400000
0.011200  -39.800000
-0.005300  -39.800000
-0.008300  -39.800000
-0.010500  -40.000000
-0.012800  -40.000000
-0.011300  -40.300000
-0.014300  -40.100000
-0.015800  -40.400000
-0.008300  -40.400000
-0.003800  -40.600000
-0.008300  -40.500000
-0.004600  -41.000000
-0.006000  -40.800000
-0.006800  -41.000000
0.000700  -41.000000
0.003700  -41.000000
0.002200  -41.500000
-0.001500  -41.100000
0.005200  -41.700000
0.011200  -41.400000
0.012700  -42.000000
0.006000  -41.700000
-0.000800  -42.100000
-0.003800  -42.300000
0.003700  -42.300000
0.019500  -42.300000
0.009000  -42.600000
-0.008300  -42.600000
-0.017300  -42.700000
-0.019500  -42.900000
0.000700  -42.700000
0.032200  -43.200000
0.034500  -43.200000
0.003000  -43.200000
-0.011300  -43.500000
-0.010500  -43.500000
-0.012800  -43.700000
-0.008300  -43.500000
-0.009100  -44.000000
-0.017300  -44.000000
-0.018100  -44.100000
-0.010500  -44.100000
-0.011300  -44.300000
-0.012000  -44.100000
-0.009100  -44.700000
-0.003800  -44.300000
0.004500  -44.900000
0.004500  -44.600000
0.000700  -45.000000
-0.000800  -45.000000
0.003000  -45.100000
0.003000  -45.500000
0.001500  -45.400000
-0.000800  -45.700000
-0.002300  -45.700000
-0.000800  -45.800000
0.003000  -45.900000
0.000700  -46.200000
-0.004600  -45.900000
-0.004600  -46.400000
-0.003000  -46.400000
-0.006000  -46.500000
-0.009100  -46.800000
-0.003800  -46.700000
0.005200  -47.000000
0.009700  -47.000000
0.010500  -47.300000
0.006000  -47.100000
0.000000  -47.600000
0.003000  -47.500000
0.003000  -47.700000
-0.003800  -47.800000
-0.009100  -47.900000
-0.012000  -48.200000
-0.013500  -48.300000
-0.013500  -48.600000
-0.006800  -48.200000
-0.003000  -48.700000
-0.006800  -48.500000
-0.009100  -49.000000
-0.000800  -48.700000
0.009000  -49.100000
0.003700  -49.100000
-0.001500  -49.400000
-0.004600  -49.400000
-0.006800  -49.400000
-0.008300  -49.600000
-0.007500  -49.600000
0.001500  -49.600000
0.023200  -49.800000
0.031500  -50.000000
0.013500  -49.900000
0.003000  -50.200000
-0.003000  -50.200000
-0.005300  -50.300000
-0.001500  -50.700000
0.000700  -50.600000
0.010500  -50.800000
0.012700  -50.600000
0.006700  -51.000000
0.006700  -50.900000
0.011200  -51.200000
-0.000800  -51.400000
-0.015800  -51.300000
-0.012800  -51.300000
-0.012000  -51.600000
-0.010500  -51.400000
-0.008300  -51.800000
-0.005300  -51.900000
0.001500  -51.900000
0.006000  -52.100000
0.007500  -52.100000
0.001500  -52.300000
-0.001500  -52.400000
0.005200  -52.500000
0.008200  -52.700000
0.005200  -52.600000
0.000700  -53.000000
-0.003000  -52.700000
-0.005300  -53.100000
-0.004600  -53.500000
-0.009100  -53.200000
-0.009100  -53.200000
-0.007500  -53.700000
-0.006800  -53.400000
0.000700  -54.000000
0.003000  -53.800000
0.000000  -54.100000
0.001500  -54.100000
0.004500  -54.200000
0.000000  -54.400000
-0.005300  -54.500000
-0.008300  -54.900000
-0.008300  -54.600000
-0.007500  -54.900000
-0.006800  -55.000000
-0.003800  -55.100000
-0.003000  -55.100000
-0.003800  -55.400000
-0.003000  -55.300000
-0.007500  -55.700000
-0.012800  -55.700000
-0.015800  -55.600000
-0.017300  -56.200000
-0.012000  -55.800000
0.003000  -56.300000
0.015700  -56.100000
0.015700  -56.500000
0.012000  -56.300000
0.013500  -56.600000
0.007500  -56.700000
0.001500  -56.900000
0.000000  -56.900000
-0.005300  -57.200000
-0.004600  -57.200000
0.001500  -57.200000
0.000700  -57.700000
-0.003000  -57.400000
-0.002300  -57.900000
0.004500  -57.800000
0.016500  -58.000000
0.023200  -58.000000
0.009700  -58.100000
-0.009800  -58.500000
-0.015800  -58.300000
-0.012000  -58.900000
-0.003000  -58.600000
0.006000  -58.700000
0.007500  -58.900000
-0.003000  -59.100000
-0.012800  -59.000000
-0.014300  -59.200000
-0.015000  -59.400000
-0.013500  -59.400000
-0.012800  -59.700000
-0.009100  -59.500000
-0.003800  -59.900000
0.003000  -59.800000
0.016500  -60.200000
0.016500  -60.000000
0.002200  -60.400000
-0.005300  -60.400000
-0.006800  -60.400000
0.001500  -60.600000
0.013500  -60.800000
0.018700  -60.900000
0.020200  -61.100000
0.012000  -61.000000
0.001500  -61.300000
-0.003800  -61.500000
-0.005300  -61.400000
-0.007500  -61.700000
-0.014300  -61.800000
-0.014300  -62.000000
-0.009800  -62.200000
-0.006800  -61.900000
-0.002300  -62.500000
-0.003000  -62.200000
-0.005300  -62.600000
-0.003000  -62.700000
-0.003000  -62.800000
-0.004600  -63.000000
-0.004600  -63.200000
-0.004600  -63.000000
-0.001500  -63.500000
0.001500  -63.300000
0.002200  -63.800000
0.001500  -63.400000
0.003000  -63.900000
0.003000  -63.700000
0.008200  -63.800000
0.009000  -64.000000
0.006700  -63.800000
0.008200  -64.200000
0.005200  -64.200000
0.005200  -64.300000
0.000700  -64.400000
-0.001500  -64.500000
-0.000800  -64.400000
-0.004600  -64.900000
-0.003800  -64.700000
-0.004600  -65.000000
-0.004600  -65.000000
-0.002300  -65.000000
-0.006000  -65.400000
-0.005300  -65.000000
-0.006000  -65.600000
-0.007500  -65.200000
-0.006800  -65.800000
-0.005300  -65.500000
-0.005300  -65.700000
-0.004600  -65.800000
-0.000800  -66.100000
0.001500  -66.100000
0.000000  -66.100000
-0.002300  -66.200000
-0.003800  -66.200000
-0.001500  -66.500000
-0.000800  -66.400000
-0.002300  -67.000000
-0.004600  -66.600000
-0.012800  -67.000000
-0.010500  -66.800000
-0.006000  -67.100000
-0.012800  -67.200000
-0.012000  -67.100000
-0.009800  -67.300000
0.000000  -67.500000
0.015700  -67.500000
0.035200  -67.600000
0.045700  -67.900000
0.027000  -67.900000
0.008200  -68.000000
0.000700  -67.800000
-0.003000  -68.100000
-0.005300  -68.100000
-0.008300  -68.200000
-0.009800  -68.300000
-0.012000  -68.200000
-0.018100  -68.700000
-0.024800  -68.400000
-0.023300  -68.900000
-0.018100  -68.900000
-0.014300  -68.700000
-0.007500  -69.000000
-0.003000  -69.000000
0.006700  -68.900000
0.012700  -69.300000
0.017200  -69.000000
0.023200  -69.400000
0.019500  -69.400000
0.006700  -69.400000
-0.001500  -69.700000
-0.006000  -69.500000
-0.007500  -69.800000
-0.003000  -69.700000
0.003000  -69.900000
0.012000  -70.000000
0.009000  -70.000000
0.000700  -70.200000
-0.007500  -70.200000
-0.009800  -70.100000
-0.010500  -70.200000
-0.010500  -70.700000
-0.005300  -70.300000
-0.006800  -70.800000
-0.009800  -70.500000
-0.009800  -71.100000
-0.006800  -70.600000
-0.003800  -71.000000
-0.003800  -70.900000
-0.002300  -71.100000
-0.001500  -71.400000
-0.001500  -71.100000
-0.000800  -71.200000
0.001500  -71.400000
0.003700  -71.500000
0.006700  -71.600000
0.008200  -71.800000
0.006700  -71.600000
0.005200  -72.000000
0.001500  -71.800000
-0.001500  -71.900000
-0.003000  -72.200000
-0.002300  -71.900000
0.000700  -72.400000
0.005200  -72.000000
0.005200  -72.500000
0.004500  -72.100000
0.005200  -72.500000
0.001500  -72.500000
-0.001500  -72.600000
-0.003000  -72.700000
-0.004600  -72.800000
-0.005300  -72.800000
-0.006800  -72.900000
-0.005300  -73.000000
-0.005300  -72.800000
-0.005300  -73.200000
-0.003800  -72.900000
-0.000800  -73.300000
0.003000  -73.100000
0.002200  -73.300000
0.000700  -73.400000
0.001500  -73.400000
0.001500  -73.600000
0.001500  -73.400000
0.003700  -73.600000
0.003000  -73.700000
0.001500  -73.600000
-0.001500  -73.600000
-0.001500  -74.100000
-0.003000  -73.800000
-0.004600  -74.000000
-0.006800  -74.000000
-0.007500  -74.000000
-0.004600  -74.100000
-0.003800  -74.000000
-0.003000  -74.300000
-0.001500  -74.100000
0.000700  -74.400000
-0.001500  -74.100000
-0.006000  -74.300000
-0.007500  -74.400000
-0.008300  -74.500000
-0.009800  -74.300000
-0.006000  -74.600000
-0.000800  -74.500000
0.003000  -74.800000
0.004500  -74.700000
0.006000  -74.600000
0.008200  -74.900000
0.009000  -74.700000
0.008200  -74.900000
0.006000  -74.800000
0.004500  -74.800000
0.000700  -75.000000
0.000700  -74.800000
-0.000800  -75.000000
0.000000  -75.000000
0.003000  -75.000000
0.004500  -75.200000
0.004500  -75.100000
0.003000  -74.900000
0.001500  -75.300000
-0.004600  -74.700000
-0.005300  -75.500000
-0.006800  -75.000000
-0.003800  -75.100000
-0.000800  -75.200000
-0.003000  -75.300000
-0.003800  -75.400000
-0.006800  -75.200000
-0.004600  -75.500000
-0.004600  -75.300000
-0.002300  -75.400000
0.002200  -75.400000
0.003000  -75.600000
-0.001500  -75.400000
-0.003000  -75.400000
-0.001500  -75.500000
-0.003000  -75.300000
-0.005300  -75.600000
-0.004600  -75.200000
-0.003000  -75.800000
-0.003000  -75.400000
-0.001500  -75.800000
0.000000  -75.500000
0.001500  -75.600000
0.003000  -75.800000
0.000700  -75.600000
-0.001500  -75.600000
-0.003000  -75.600000
-0.000800  -75.800000
-0.001500  -75.400000
-0.000800  -76.000000
-0.001500  -75.600000
-0.001500  -75.700000
0.001500  -75.600000
0.000700  -75.500000
0.000000  -75.900000
0.001500  -75.500000
0.002200  -75.900000
0.000000  -75.600000
-0.000800  -75.900000
0.001500  -75.900000
-0.000800  -75.800000
-0.000800  -75.800000
-0.003000  -75.800000
-0.004600  -75.700000
-0.003000  -75.800000
-0.004600  -76.000000
-0.002300  -75.700000
0.003700  -76.200000
0.008200  -75.600000
0.006700  -76.100000
-0.001500  -75.900000
-0.006800  -76.000000
-0.009100  -76.000000
-0.009800  -75.900000
-0.009100  -76.100000
-0.009100  -76.000000
-0.006800  -76.000000
-0.005300  -76.000000
-0.001500  -76.000000
0.003000  -76.000000
0.006700  -76.100000
0.006700  -75.900000
0.003000  -76.100000
0.000700  -76.000000
-0.000800  -76.100000
-0.002300  -76.200000
-0.003000  -76.000000
-0.003800  -76.400000
-0.004600  -75.900000
-0.004600  -76.300000
-0.004600  -76.000000
-0.003000  -76.100000
-0.002300  -76.200000
0.000000  -76.200000
0.003000  -76.200000
0.002200  -76.200000
0.003000  -76.100000
0.004500  -76.200000
0.003000  -76.200000
0.004500  -76.000000
0.003700  -76.300000
0.003000  -76.100000
0.004500  -76.200000
0.000700  -76.200000
-0.000800  -76.000000
-0.001500  -76.300000
-0.003000  -76.100000
-0.003000  -76.200000
-0.004600  -76.100000
-0.003000  -76.000000
-0.002300  -76.200000
-0.003800  -76.200000
0.000000  -75.900000
0.003000  -76.400000
0.003700  -76.000000
0.003000  -76.300000
-0.000800  -76.000000
0.001500  -76.100000
0.001500  -76.200000
-0.000800  -75.800000
0.000000  -76.200000
0.000700  -75.900000
0.000700  -76.200000
0.003000  -76.100000
0.002200  -76.000000
0.002200  -76.000000
0.001500  -76.000000
-0.000800  -75.800000
-0.000800  -76.000000
-0.000800  -75.900000
-0.000800  -75.600000
-0.000800  -76.100000
-0.000800  -75.600000
-0.001500  -76.000000
-0.004600  -75.600000
-0.006000  -75.800000
-0.008300  -75.600000
-0.008300  -75.600000
-0.009100  -75.800000
-0.009100  -75.600000
-0.006000  -75.600000
-0.006800  -75.600000
-0.005300  -75.600000
-0.005300  -75.300000
-0.004600  -75.800000
0.000000  -75.400000
0.003000  -75.600000
0.003000  -75.400000
0.002200  -75.500000
0.002200  -75.500000
0.002200  -75.200000
0.000700  -75.500000
-0.005300  -75.100000
-0.005300  -75.400000
-0.006800  -75.100000
-0.008300  -75.100000
-0.005300  -75.200000
-0.004600  -75.300000
-0.003000  -75.000000
-0.003000  -75.100000
-0.004600  -75.100000
-0.003800  -74.900000
-0.002300  -75.100000
-0.002300  -74.700000
-0.003000  -75.000000
-0.003800  -74.700000
-0.003800  -74.800000
-0.001500  -74.800000
0.000700  -74.700000
0.001500  -74.900000
0.003000  -74.500000
0.003700  -74.700000
0.003700  -74.700000
0.004500  -74.700000
0.003700  -74.600000
0.001500  -74.700000
0.000000  -74.500000
-0.001500  -74.600000
-0.001500  -74.600000
-0.001500  -74.200000
-0.001500  -74.700000
-0.000800  -74.100000
-0.000800  -74.500000
0.000700  -74.000000
0.000000  -74.500000
-0.000800  -74.100000
-0.001500  -74.300000
-0.001500  -74.200000
-0.001500  -74.200000
-0.000800  -74.200000
0.000700  -74.100000
0.000000  -74.200000
-0.000800  -74.000000
0.001500  -74.200000
0.000700  -73.900000
0.003000  -74.000000
0.003700  -73.900000
0.003000  -73.800000
0.004500  -73.900000
0.004500  -73.600000
0.002200  -73.800000
-0.000800  -73.500000
-0.000800  -73.900000
0.000000  -73.700000
-0.001500  -73.400000
-0.001500  -73.500000
-0.003000  -73.500000
-0.004600  -73.300000
-0.003800  -73.600000
-0.005300  -73.100000
-0.006000  -73.400000
-0.004600  -73.200000
-0.004600  -73.200000
-0.003800  -73.400000
-0.000800  -73.100000
0.000700  -73.200000
-0.001500  -73.100000
-0.001500  -73.100000
-0.000800  -73.100000
-0.001500  -73.100000
0.000700  -73.100000
0.003000  -72.900000
0.003000  -72.800000
0.003000  -72.800000
0.003000  -73.000000
0.000700  -72.700000
0.000700  -73.000000
0.001500  -72.500000
0.000000  -72.900000
-0.001500  -72.500000
0.000000  -72.600000
-0.003000  -72.500000
-0.005300  -72.400000
-0.008300  -72.600000
-0.010500  -72.500000
-0.008300  -72.500000
-0.005300  -72.200000
-0.004600  -72.200000
-0.005300  -72.300000
-0.003000  -72.500000
0.000000  -72.000000
0.003000  -72.300000
0.003000  -72.100000
0.001500  -72.200000
0.000700  -72.400000
-0.000800  -71.900000
-0.000800  -72.300000
-0.000800  -71.900000
-0.001500  -72.400000
-0.001500  -72.000000
-0.000800  -71.900000
-0.000800  -72.000000
-0.000800  -72.100000
-0.000800  -72.000000
-0.001500  -72.000000
-0.001500  -72.100000
-0.003800  -71.800000
-0.001500  -72.200000
-0.001500  -71.900000
-0.001500  -72.100000
-0.000800  -71.900000
0.001500  -71.900000
0.002200  -72.000000
-0.000800  -71.900000
-0.001500  -72.200000
-0.004600  -71.600000
-0.003800  -72.100000
-0.003000  -71.800000
-0.003800  -71.900000
-0.003000  -71.900000
-0.004600  -71.900000
-0.006000  -71.800000
-0.005300  -71.700000
-0.004600  -71.900000
-0.005300  -71.800000
-0.005300  -72.100000
-0.005300  -71.600000
-0.002300  -72.100000
0.000700  -71.700000
0.004500  -72.200000
0.005200  -71.900000
0.006700  -71.900000
0.006000  -72.000000
0.005200  -71.900000
0.005200  -71.900000
0.000700  -71.900000
0.000000  -71.900000
-0.001500  -71.900000
-0.002300  -72.200000
-0.000800  -71.900000
0.000700  -72.000000
0.001500  -72.100000
0.000000  -72.000000
-0.000800  -72.200000
-0.001500  -71.700000
-0.000800  -72.300000
-0.000800  -71.800000
-0.000800  -72.200000
-0.000800  -72.000000
-0.003000  -71.900000
-0.001500  -72.100000
0.000700  -72.100000
0.000700  -72.000000
0.000000  -72.300000
0.000000  -72.000000
0.000700  -72.100000
-0.000800  -72.200000
-0.000800  -71.900000
0.001500  -72.300000
0.000700  -71.900000
0.000700  -72.200000
0.000700  -72.200000
0.001500  -72.100000
0.000700  -72.200000
-0.002300  -72.000000
-0.002300  -72.100000
-0.000800  -72.200000
-0.002300  -72.200000
-0.001500  -72.200000
0.001500  -72.500000
0.001500  -71.900000
0.000700  -72.500000
0.001500  -72.100000
0.000700  -72.500000
0.000700  -72.000000
0.002200  -72.400000
0.002200  -72.200000
0.003000  -72.200000
0.001500  -72.200000
-0.000800  -72.200000
-0.001500  -72.400000
-0.003800  -72.300000
-0.003000  -72.000000
-0.003000  -72.200000
-0.004600  -72.400000
-0.006800  -71.900000
-0.008300  -72.400000
-0.009800  -72.100000
-0.012800  -72.500000
-0.010500  -72.200000
-0.006000  -72.300000
-0.004600  -72.300000
-0.004600  -72.100000
-0.003000  -72.500000
-0.001500  -72.100000
-0.000800  -72.500000
-0.000800  -72.200000
-0.003000  -72.200000
-0.001500  -72.300000
-0.001500  -72.100000
-0.001500  -72.200000
0.000700  -72.300000
0.002200  -72.100000
0.003000  -72.200000
0.002200  -72.300000
0.003000  -71.900000
0.000700  -72.300000
-0.000800  -72.000000
-0.003000  -72.500000
-0.007500  -71.900000
-0.005300  -72.200000
-0.005300  -72.000000
-0.001500  -72.100000
-0.000800  -72.000000
-0.001500  -72.100000
-0.000800  -72.100000
-0.001500  -72.300000
0.000000  -71.900000
0.000000  -72.100000
-0.000800  -71.900000
-0.001500  -72.000000
-0.001500  -72.200000
-0.000800  -72.000000
0.000700  -72.200000
-0.000800  -72.000000
-0.001500  -71.900000
-0.001500  -72.100000
-0.002300  -71.900000
-0.003000  -72.100000
-0.003800  -72.000000
-0.002300  -71.900000
-0.001500  -71.900000
-0.001500  -72.200000
-0.001500  -71.700000
-0.000800  -72.300000
0.001500  -71.800000
0.001500  -72.200000
0.001500  -71.700000
0.000700  -71.800000
0.001500  -71.900000
-0.000800  -71.600000
-0.000800  -72.000000
0.001500  -71.700000
0.000000  -71.900000
0.001500  -71.900000
0.001500  -71.600000
-0.000800  -71.700000
0.001500  -71.900000
0.001500  -71.600000
0.003000  -71.900000
-0.000800  -71.800000
-0.001500  -71.700000
-0.000800  -71.800000
0.000000  -71.500000
0.001500  -72.000000
0.003000  -71.500000
0.003000  -71.900000
0.003700  -71.700000
0.001500  -71.900000
0.001500  -71.700000
0.003000  -71.700000
0.002200  -71.700000
0.002200  -71.700000
0.000700  -71.700000
-0.000800  -71.500000
-0.000800  -72.000000
-0.001500  -71.600000
-0.000800  -72.000000
0.000000  -71.900000
0.000000  -71.800000
0.001500  -71.900000
0.000700  -71.600000
0.001500  -71.900000
0.003000  -71.600000
0.002200  -72.000000
0.000700  -71.600000
-0.001500  -71.800000
-0.001500  -71.800000
-0.003000  -72.000000
-0.003800  -71.800000
-0.004600  -71.800000
-0.004600  -72.000000
-0.004600  -71.600000
-0.005300  -72.100000
-0.000800  -71.600000
-0.003800  -72.200000
-0.004600  -71.800000
-0.003800  -71.900000
-0.004600  -71.800000
-0.001500  -71.800000
0.000000  -71.900000
0.000000  -71.800000
-0.000800  -71.900000
-0.000800  -71.900000
0.000700  -71.900000
0.003700  -72.000000
0.003700  -72.200000
0.001500  -71.900000
0.001500  -72.000000
0.001500  -72.000000
0.000700  -71.900000
-0.001500  -72.200000
-0.001500  -71.900000
-0.000800  -72.200000
0.000000  -71.700000
0.000700  -72.100000
-0.001500  -71.900000
-0.003000  -72.100000
-0.006000  -72.100000
-0.008300  -72.000000
-0.008300  -72.100000
-0.008300  -72.000000
-0.008300  -72.100000
-0.007500  -72.100000
-0.006000  -72.100000
-0.005300  -71.900000
-0.003800  -72.200000
-0.003000  -72.000000
-0.003000  -72.100000
-0.001500  -71.900000
-0.000800  -72.100000
0.000000  -72.100000
0.000000  -71.900000
-0.000800  -72.300000
0.001500  -72.100000
0.003000  -72.100000
0.005200  -72.100000
0.004500  -72.100000
0.003000  -71.800000
0.005200  -72.300000
0.002200  -72.000000
0.000000  -72.100000
-0.000800  -72.100000
-0.000800  -72.100000
0.000700  -72.200000
-0.000800  -72.000000
-0.001500  -72.100000
-0.003000  -72.100000
-0.005300  -72.100000
-0.004600  -72.200000
-0.006800  -72.100000
-0.006800  -72.000000
-0.005300  -72.200000
-0.006800  -71.900000
-0.006000  -72.100000
-0.004600  -72.200000
-0.004600  -71.900000
-0.004600  -72.200000
-0.006000  -71.900000
-0.003000  -72.200000
-0.003000  -71.900000
-0.002300  -72.200000
-0.000800  -71.900000
-0.001500  -72.100000
-0.001500  -72.100000
-0.004600  -71.900000
-0.001500  -72.100000
0.003700  -72.200000
0.003000  -72.000000
0.003700  -72.000000
0.005200  -72.300000
0.004500  -71.800000
0.004500  -72.300000
0.004500  -71.800000
0.001500  -72.100000
0.001500  -72.200000
0.000700  -71.800000
0.003000  -72.300000
0.003700  -72.000000
0.001500  -72.200000
-0.000800  -71.900000
-0.000800  -72.100000
0.000000  -72.000000
0.000700  -71.900000
0.003000  -72.000000
0.002200  -72.100000
0.000700  -72.100000
-0.000800  -71.900000
-0.001500  -72.300000
-0.003000  -71.900000
-0.003000  -72.200000
-0.002300  -71.800000
-0.000800  -72.200000
0.000700  -71.900000
-0.000800  -71.900000
0.000700  -72.100000
0.001500  -71.800000
0.001500  -72.200000
0.002200  -72.000000
0.004500  -72.100000
0.005200  -72.000000
0.003700  -72.200000
0.003000  -72.000000
0.003000  -72.000000
0.003000  -72.000000
0.000700  -71.900000
-0.000800  -72.100000
-0.003800  -71.700000
-0.005300  -72.300000
-0.003000  -71.800000
-0.003800  -72.200000
-0.003000  -71.900000
-0.003000  -72.100000
-0.004600  -72.000000
-0.004600  -72.000000
-0.004600  -71.900000
-0.003000  -72.000000
-0.000800  -72.000000
0.000000  -72.100000
0.000700  -72.100000
0.001500  -71.900000
0.001500  -72.200000
0.002200  -71.900000
0.001500  -72.100000
-0.002300  -72.200000
-0.005300  -72.000000
-0.004600  -72.400000
-0.005300  -71.800000
-0.005300  -72.200000
-0.005300  -72.100000
-0.006000  -72.000000
-0.006800  -72.200000
-0.008300  -72.200000
-0.009100  -71.800000
-0.005300  -72.400000
-0.002300  -72.000000
-0.003000  -72.300000
-0.002300  -72.100000
0.000000  -72.100000
0.000000  -72.300000
-0.000800  -72.000000
-0.003000  -72.200000
-0.001500  -72.200000
-0.000800  -72.100000
0.000000  -72.100000
0.001500  -72.000000
0.000000  -72.000000
0.000700  -72.100000
-0.000800  -72.200000
0.001500  -72.200000
0.002200  -72.000000
-0.000800  -72.100000
-0.000800  -72.400000
0.000700  -71.900000
0.003000  -72.400000
0.002200  -72.000000
0.002200  -72.200000
0.001500  -72.000000
0.001500  -72.200000
0.000700  -72.300000
-0.003000  -72.000000
-0.006000  -72.200000
-0.006800  -72.100000
-0.006800  -72.300000
-0.008300  -72.200000
-0.005300  -72.300000
-0.003000  -71.900000
-0.003000  -72.200000
-0.002300  -72.100000
-0.000800  -72.200000
0.001500  -72.200000
0.002200  -72.100000
0.003000  -72.400000
0.004500  -72.000000
0.001500  -72.500000
-0.001500  -71.900000
0.000700  -72.300000
0.003000  -72.300000
0.003700  -72.000000
0.003000  -72.100000
0.004500  -72.100000
0.006000  -72.200000
0.005200  -72.200000
0.005200  -72.300000
0.003700  -72.100000
-0.000800  -72.500000
-0.003000  -71.900000
-0.003800  -72.500000
-0.004600  -72.100000
-0.006800  -72.300000
-0.006000  -72.400000
-0.003800  -72.200000
-0.003800  -72.400000
-0.003000  -72.200000
-0.003800  -72.300000
-0.005300  -72.200000
-0.004600  -72.100000
-0.002300  -72.100000
-0.001500  -72.500000
-0.001500  -72.000000
-0.000800  -72.400000
-0.003000  -72.400000
-0.002300  -72.100000
-0.001500  -72.500000
-0.003800  -72.100000
-0.004600  -72.500000
-0.005300  -72.200000
-0.004600  -72.400000
-0.001500  -72.100000
0.001500  -72.300000
0.001500  -72.200000
0.000700  -72.300000
0.000700  -72.200000
0.000000  -72.500000
0.001500  -72.400000
0.000700  -72.300000
-0.000800  -72.400000
0.000000  -72.200000
0.000700  -72.400000
-0.000800  -72.300000
-0.000800  -72.400000
0.000000  -72.400000
-0.000800  -72.300000
0.000000  -72.500000
-0.000800  -72.100000
-0.001500  -72.200000
-0.001500  -72.400000
-0.003000  -72.400000
-0.005300  -72.300000
-0.009100  -72.500000
-0.009800  -72.100000
-0.010500  -72.500000
-0.009800  -72.100000
-0.005300  -72.500000
-0.004600  -72.300000
-0.003800  -72.200000
-0.002300  -72.500000
-0.002300  -72.100000
-0.000800  -72.400000
-0.000800  -72.200000
-0.001500  -72.400000
-0.001500  -72.500000
-0.001500  -72.200000
-0.001500  -72.400000
-0.003000  -72.500000
-0.003000  -72.300000
-0.002300  -72.400000
-0.002300  -72.500000
-0.001500  -72.300000
-0.000800  -72.600000
0.001500  -72.100000
0.003000  -72.600000
0.003000  -72.200000
0.003000  -72.600000
0.004500  -72.400000
0.006700  -72.300000
0.005200  -72.500000
0.005200  -72.300000
0.006700  -72.400000
0.005200  -72.400000
0.003000  -72.400000
0.003000  -72.100000
0.001500  -72.500000
-0.000800  -72.300000
-0.001500  -72.600000
-0.004600  -72.400000
-0.003000  -72.500000
-0.003000  -72.500000
-0.004600  -72.200000
-0.004600  -72.500000
-0.003000  -72.200000
0.000700  -72.600000
0.001500  -72.300000
0.003000  -72.300000
0.001500  -72.200000
-0.001500  -72.400000
-0.000800  -72.500000
0.000000  -72.400000
0.003000  -72.300000
0.003700  -72.200000
0.002200  -72.500000
0.000700  -72.100000
0.000000  -72.400000
-0.000800  -72.300000
-0.001500  -72.600000
-0.001500  -72.200000
-0.003000  -72.500000
-0.000800  -72.400000
0.001500  -72.200000
0.000700  -72.400000
0.000700  -72.400000
-0.000800  -72.400000
-0.001500  -72.600000
-0.003000  -72.500000
-0.006000  -72.200000
-0.008300  -72.500000
-0.008300  -72.200000
-0.008300  -72.500000
-0.008300  -72.300000
-0.006800  -72.200000
-0.007500  -72.500000
-0.008300  -72.200000
-0.007500  -72.500000
-0.007500  -72.200000
-0.004600  -72.500000
-0.002300  -72.500000
0.000000  -72.500000
0.001500  -72.500000
0.001500  -72.400000
0.002200  -72.100000
0.003000  -72.700000
0.003000  -72.100000
0.001500  -72.600000
0.004500  -72.400000
0.004500  -72.500000
0.005200  -72.500000
0.005200  -72.300000
0.004500  -72.500000
0.003700  -72.300000
-0.000800  -72.500000
-0.003000  -72.500000
-0.004600  -72.500000
-0.003800  -72.300000
-0.001500  -72.500000
0.000700  -72.200000
-0.000800  -72.500000
-0.000800  -72.300000
-0.000800  -72.300000
-0.000800  -72.500000
0.000700  -72.300000
0.002200  -72.500000
0.001500  -72.200000
0.001500  -72.600000
0.001500  -72.300000
0.001500  -72.500000
0.001500  -72.300000
0.001500  -72.400000
0.001500  -72.300000
0.001500  -72.400000
0.003000  -72.500000
0.003000  -72.300000
0.003700  -72.500000
0.003700  -72.200000
0.000700  -72.500000
-0.000800  -72.300000
-0.001500  -72.500000
-0.002300  -72.200000
-0.005300  -72.600000
-0.005300  -72.200000
-0.004600  -72.500000
-0.006800  -72.300000
-0.007500  -72.400000
-0.009100  -72.500000
-0.008300  -72.300000
-0.007500  -72.500000
-0.008300  -72.400000
-0.006800  -72.400000
-0.004600  -72.300000
-0.003800  -72.500000
-0.003000  -72.300000
-0.003000  -72.400000
-0.000800  -72.500000
0.000700  -72.300000
0.000700  -72.500000
0.003700  -72.200000
0.005200  -72.600000
0.004500  -72.200000
0.003000  -72.500000
0.001500  -72.400000
0.003700  -72.400000
0.004500  -72.400000
0.003000  -72.400000
0.002200  -72.200000
0.000700  -72.500000
0.000000  -72.300000
-0.003000  -72.500000
-0.006800  -72.400000
-0.008300  -72.100000
-0.008300  -72.600000
-0.006800  -72.200000
-0.007500  -72.400000
-0.006800  -72.300000
-0.006000  -72.200000
-0.005300  -72.500000
-0.004600  -72.100000
-0.005300  -72.400000
-0.004600  -72.500000
-0.004600  -72.500000
-0.001500  -72.300000
-0.000800  -72.600000
0.000000  -72.300000
0.001500  -72.500000
0.000700  -72.200000
-0.000800  -72.600000
-0.003000  -72.400000
-0.001500  -72.400000
0.001500  -72.500000
0.000000  -72.300000
-0.000800  -72.400000
0.000700  -72.400000
0.004500  -72.400000
0.003000  -72.500000
0.003700  -72.300000
0.003000  -72.300000
0.001500  -72.700000
0.001500  -72.200000
-0.001500  -72.600000
-0.004600  -72.500000
-0.003800  -72.400000
-0.003000  -72.500000
-0.005300  -72.200000
-0.004600  -72.700000
-0.002300  -72.200000
-0.003000  -72.700000
0.000700  -72.300000
0.001500  -72.500000
-0.000800  -72.500000
0.002200  -72.500000
0.000700  -72.500000
-0.001500  -72.500000
-0.002300  -72.500000
-0.001500  -72.300000
0.000700  -72.500000
0.000000  -72.200000
0.000700  -72.500000
-0.001500  -72.300000
-0.001500  -72.500000
-0.001500  -72.400000
-0.003800  -72.400000
-0.003000  -72.500000
-0.003800  -72.100000
-0.002300  -72.600000
0.000700  -72.500000
-0.000800  -72.400000
0.000700  -72.500000
0.000700  -72.400000
-0.000800  -72.300000
-0.001500  -72.600000
-0.003000  -72.400000
-0.000800  -72.500000
-0.000800  -72.500000
-0.003000  -72.500000
-0.001500  -72.700000
-0.000800  -72.200000
0.000000  -72.600000
-0.000800  -72.300000
-0.000800  -72.500000
-0.003000  -72.300000
-0.002300  -72.500000
-0.001500  -72.300000
-0.002300  -72.500000
-0.001500  -72.500000
-0.005300  -72.600000
-0.005300  -72.300000
-0.002300  -72.400000
-0.001500  -72.700000
-0.001500  -72.400000
-0.001500  -72.600000
-0.000800  -72.500000
0.000000  -72.500000
0.000700  -72.500000
0.000700  -72.200000
-0.001500  -72.600000
-0.000800  -72.200000
-0.002300  -72.400000
-0.003000  -72.500000
-0.003000  -72.400000
-0.005300  -72.500000
-0.006800  -72.700000
-0.006000  -72.200000
-0.003000  -72.600000
-0.004600  -72.400000
-0.004600  -72.500000
-0.001500  -72.500000
-0.001500  -72.300000
-0.001500  -72.600000
-0.000800  -72.400000
-0.001500  -72.500000
-0.003800  -72.500000
-0.004600  -72.300000
-0.004600  -72.400000
-0.007500  -72.500000
-0.008300  -72.400000
-0.005300  -72.500000
-0.004600  -72.300000
-0.003000  -72.400000
-0.001500  -72.600000
-0.000800  -72.300000
0.000000  -72.600000
-0.001500  -72.400000
-0.000800  -72.600000
0.000700  -72.400000
0.003700  -72.500000
0.005200  -72.500000
0.002200  -72.300000
0.002200  -72.600000
0.001500  -72.500000
0.001500  -72.300000
0.003000  -72.400000
0.002200  -72.500000
0.003700  -72.200000
0.004500  -72.600000
0.004500  -72.300000
0.002200  -72.500000
0.000000  -72.400000
0.000000  -72.400000
0.000700  -72.600000
0.000700  -72.200000
0.000700  -72.800000
0.000700  -72.200000
0.000700  -72.600000
0.000700  -72.400000
0.000700  -72.400000
0.002200  -72.500000
0.000700  -72.500000
0.000700  -72.300000
0.000000  -72.500000
-0.001500  -72.500000
-0.003000  -72.300000
-0.004600  -72.600000
-0.004600  -72.400000
-0.005300  -72.500000
-0.004600  -72.300000
-0.005300  -72.700000
-0.005300  -72.200000
-0.003000  -72.500000
-0.003000  -72.500000
-0.000800  -72.300000
0.001500  -72.500000
0.001500  -72.500000
0.000700  -72.400000
0.002200  -72.500000
0.003000  -72.200000
0.002200  -72.500000
0.003000  -72.500000
0.004500  -72.200000
0.003700  -72.700000
0.006000  -72.400000
0.006000  -72.400000
0.006000  -72.500000
0.006700  -72.400000
0.006700  -72.600000
0.005200  -72.200000
0.000700  -72.500000
-0.000800  -72.500000
0.000000  -72.500000
-0.000800  -72.300000
0.000700  -72.500000
-0.000800  -72.200000
-0.001500  -72.700000
-0.003000  -72.200000
-0.005300  -72.500000
-0.007500  -72.300000
-0.004600  -72.600000
-0.000800  -72.400000
-0.001500  -72.400000
-0.001500  -72.500000
-0.003000  -72.200000
-0.003800  -72.500000
-0.004600  -72.500000
-0.003800  -72.400000
-0.004600  -72.400000
-0.005300  -72.400000
-0.003800  -72.300000
-0.003000  -72.600000
-0.001500  -72.300000
-0.001500  -72.500000
-0.001500  -72.500000
0.002200  -72.500000
0.003700  -72.500000
0.003000  -72.200000
0.001500  -72.600000
0.001500  -72.200000
0.001500  -72.500000
0.003000  -72.300000
0.006000  -72.400000
0.004500  -72.400000
0.003000  -72.500000
0.003000  -72.400000
0.001500  -72.500000
0.001500  -72.500000
0.001500  -72.400000
0.001500  -72.500000
0.001500  -72.300000
0.000700  -72.500000
0.002200  -72.200000
0.003000  -72.800000
0.003000  -72.200000
0.000700  -72.500000
-0.002300  -72.500000
-0.004600  -72.400000
-0.005300  -72.600000
-0.004600  -72.500000
-0.003800  -72.300000
-0.004600  -72.500000
-0.006800  -72.400000
-0.006800  -72.300000
-0.004600  -72.500000
-0.005300  -72.300000
-0.005300  -72.600000
-0.005300  -72.500000
-0.003000  -72.500000
-0.001500  -72.500000
-0.003800  -72.300000
-0.006000  -72.600000
-0.005300  -72.200000
-0.003000  -72.800000
-0.005300  -72.200000
-0.006000  -72.500000
-0.005300  -72.500000
-0.005300  -72.300000
-0.003000  -72.400000
-0.003800  -72.600000
-0.002300  -72.300000
-0.001500  -72.500000
0.000000  -72.400000
0.001500  -72.500000
0.001500  -72.300000
0.001500  -72.400000
0.000700  -72.500000
0.000000  -72.500000
-0.001500  -72.500000
-0.002300  -72.300000
0.000000  -72.600000
0.000700  -72.500000
0.000000  -72.500000
0.000700  -72.500000
0.002200  -72.700000
0.001500  -72.300000
0.001500  -72.600000
0.000700  -72.500000
0.000700  -72.500000
0.003000  -72.600000
0.003000  -72.400000
0.001500  -72.600000
0.000700  -72.200000
0.000700  -72.700000
0.001500  -72.100000
0.002200  -72.600000
0.001500  -72.400000
0.000700  -72.500000
-0.000800  -72.500000
0.000700  -72.300000
-0.001500  -72.500000
0.001500  -72.500000
0.003700  -72.500000
0.001500  -72.400000
0.000000  -72.500000
-0.000800  -72.200000
-0.000800  -72.700000
0.000000  -72.400000
0.000700  -72.500000
0.000700  -72.500000
0.000700  -72.300000
-0.000800  -72.500000
-0.000800  -72.400000
-0.000800  -72.500000
-0.003000  -72.400000
-0.005300  -72.400000
-0.003800  -72.700000
-0.000800  -72.400000
-0.000800  -72.300000
-0.000800  -72.600000
-0.000800  -72.200000
0.001500  -72.600000
0.000700  -72.500000
0.002200  -72.400000
0.004500  -72.500000
0.001500  -72.300000
-0.001500  -72.600000
-0.003000  -72.400000
-0.006000  -72.500000
-0.007500  -72.500000
-0.006800  -72.400000
-0.008300  -72.500000
-0.007500  -72.500000
-0.006000  -72.400000
-0.005300  -72.700000
-0.006800  -72.200000
-0.006800  -72.500000
-0.004600  -72.200000
-0.002300  -72.500000
-0.000800  -72.400000
0.000000  -72.500000
0.003000  -72.400000
0.003000  -72.400000
0.002200  -72.600000
0.002200  -72.400000
0.000700  -72.500000
0.001500  -72.400000
0.001500  -72.400000
0.001500  -72.400000
-0.000800  -72.600000
-0.003000  -72.200000
-0.001500  -72.500000
0.000700  -72.400000
0.000700  -72.600000
0.000000  -72.500000
0.001500  -72.400000
0.000700  -72.600000
-0.000800  -72.300000
-0.001500  -72.500000
-0.001500  -72.300000
-0.003000  -72.500000
-0.002300  -72.400000
-0.003800  -72.500000
-0.006800  -72.500000
-0.005300  -72.500000
-0.007500  -72.500000
-0.009100  -72.500000
-0.008300  -72.500000
-0.004600  -72.400000
-0.003800  -72.500000
-0.003000  -72.300000
-0.001500  -72.700000
-0.003000  -72.200000
-0.001500  -72.600000
-0.000800  -72.300000
-0.001500  -72.500000
-0.000800  -72.500000
-0.000800  -72.500000
0.000700  -72.400000
0.002200  -72.600000
0.003000  -72.300000
0.002200  -72.600000
0.001500  -72.500000
0.001500  -72.400000
0.001500  -72.700000
0.000700  -72.300000
0.000700  -72.600000
0.000000  -72.400000
-0.000800  -72.600000
0.000700  -72.500000
-0.000800  -72.300000
0.000700  -72.600000
0.003000  -72.500000
0.003000  -72.500000
0.001500  -72.500000
0.003000  -72.500000
0.001500  -72.500000
-0.001500  -72.700000
-0.001500  -72.400000
0.000000  -72.700000
0.000000  -72.200000
-0.001500  -72.600000
-0.001500  -72.500000
-0.002300  -72.400000
-0.003000  -72.600000
-0.003000  -72.400000
-0.003000  -72.500000
-0.001500  -72.400000
-0.002300  -72.500000
-0.001500  -72.500000
0.000000  -72.500000
0.000000  -72.400000
0.000700  -72.600000
-0.002300  -72.400000
-0.001500  -72.500000
-0.001500  -72.500000
-0.000800  -72.300000
-0.000800  -72.500000
-0.003000  -72.200000
-0.001500  -72.800000
-0.001500  -72.200000
-0.003000  -72.600000
-0.001500  -72.300000
-0.003000  -72.600000
-0.003800  -72.500000
-0.002300  -72.300000
-0.003800  -72.500000
-0.001500  -72.400000
0.000000  -72.700000
-0.000800  -72.300000
0.002200  -72.500000
0.004500  -72.400000
0.000700  -72.600000
-0.001500  -72.500000
-0.003000  -72.500000
-0.005300  -72.500000
-0.003000  -72.300000
-0.003000  -72.600000
-0.003000  -72.300000
-0.004600  -72.800000
-0.005300  -72.500000
-0.003000  -72.400000
-0.003000  -72.500000
-0.003000  -72.500000
-0.003800  -72.300000
-0.003000  -72.600000
-0.000800  -72.500000
0.000700  -72.500000
0.003000  -72.500000
0.003000  -72.400000
0.003000  -72.700000
0.003700  -72.400000
0.005200  -72.700000
0.005200  -72.400000
0.004500  -72.600000
0.001500  -72.500000
0.000000  -72.500000
0.000700  -72.500000
0.000700  -72.600000
-0.000800  -72.400000
-0.002300  -72.600000
-0.001500  -72.400000
0.000000  -72.400000
0.001500  -72.500000
0.002200  -72.400000
0.001500  -72.600000
0.000000  -72.400000
0.000000  -72.500000
0.000700  -72.600000
-0.003000  -72.500000
-0.004600  -72.700000
-0.005300  -72.300000
-0.008300  -72.500000
-0.004600  -72.500000
-0.004600  -72.500000
-0.001500  -72.600000
0.001500  -72.500000
0.000700  -72.200000
0.003000  -72.700000
0.001500  -72.100000
0.000000  -72.600000
0.000700  -72.300000
0.001500  -72.600000
0.001500  -72.300000
0.000000  -72.500000
-0.000800  -72.500000
0.001500  -72.500000
0.002200  -72.500000
0.001500  -72.500000
0.000700  -72.500000
0.000000  -72.500000
0.002200  -72.500000
0.002200  -72.300000
0.002200  -72.700000
0.003000  -72.400000
0.003000  -72.500000
0.003000  -72.500000
0.000700  -72.500000
-0.003000  -72.500000
-0.004600  -72.400000
-0.004600  -72.700000
-0.004600  -72.400000
-0.002300  -72.700000
-0.003800  -72.300000
-0.006000  -72.300000
-0.006800  -72.400000
-0.005300  -72.300000
-0.005300  -72.500000
-0.003000  -72.500000
-0.001500  -72.500000
-0.004600  -72.500000
-0.003800  -72.500000
-0.004600  -72.200000
-0.003800  -72.800000
-0.003000  -72.200000
-0.003000  -72.700000
-0.003000  -72.200000
-0.003000  -72.600000
-0.002300  -72.400000
-0.004600  -72.300000
-0.003800  -72.500000
-0.002300  -72.400000
-0.002300  -72.400000
-0.001500  -72.600000
-0.003000  -72.500000
-0.002300  -72.500000
-0.000800  -72.600000
0.001500  -72.200000
0.001500  -72.600000
0.002200  -72.500000
0.003000  -72.400000
0.003000  -72.500000
0.004500  -72.200000
0.004500  -72.500000
0.006000  -72.300000
0.003000  -72.500000
0.003000  -72.500000
0.001500  -72.400000
-0.000800  -72.500000
-0.000800  -72.500000
-0.003000  -72.200000
-0.003000  -72.600000
-0.003000  -72.300000
-0.002300  -72.500000
-0.001500  -72.500000
-0.001500  -72.500000
-0.001500  -72.500000
-0.002300  -72.200000
0.000000  -72.500000
0.000000  -72.300000
0.000700  -72.500000
0.000700  -72.500000
0.003000  -72.500000
0.003000  -72.500000
-0.000800  -72.500000
-0.000800  -72.400000
-0.003800  -72.500000
-0.004600  -72.500000
-0.001500  -72.300000
-0.000800  -72.600000
0.000700  -72.300000
0.000700  -72.600000
0.001500  -72.100000
0.000700  -72.600000
0.000700  -72.400000
0.001500  -72.600000
0.001500  -72.500000
0.000700  -72.400000
0.000000  -72.500000
-0.001500  -72.500000
-0.002300  -72.500000
-0.002300  -72.500000
-0.003000  -72.700000
-0.003000  -72.300000
-0.002300  -72.700000
-0.003000  -72.400000
-0.001500  -72.600000
-0.000800  -72.500000
-0.001500  -72.500000
-0.000800  -72.300000
0.000000  -72.400000
0.001500  -72.500000
0.000700  -72.300000
-0.001500  -72.500000
-0.002300  -72.600000
-0.002300  -72.400000
-0.000800  -72.500000
-0.000800  -72.500000
-0.000800  -72.400000
0.001500  -72.500000
-0.000800  -72.400000
-0.000800  -72.400000
-0.000800  -72.400000
-0.002300  -72.400000
-0.002300  -72.700000
-0.003000  -72.200000
-0.003000  -72.600000
-0.001500  -72.300000
-0.001500  -72.600000
-0.003800  -72.500000
-0.003800  -72.500000
-0.003000  -72.500000
-0.003800  -72.500000
-0.003000  -72.300000
-0.001500  -72.700000
-0.002300  -72.300000
-0.003000  -72.500000
-0.003800  -72.500000
-0.006000  -72.500000
-0.005300  -72.500000
-0.004600  -72.200000
-0.004600  -72.500000
-0.003800  -72.400000
-0.003000  -72.500000
-0.004600  -72.500000
-0.005300  -72.400000
-0.004600  -72.500000
-0.002300  -72.500000
-0.001500  -72.500000
-0.000800  -72.500000
-0.000800  -72.500000
0.000000  -72.300000
0.002200  -72.700000
0.002200  -72.200000
0.002200  -72.700000
0.001500  -72.200000
-0.000800  -72.600000
-0.001500  -72.500000
-0.001500  -72.400000
-0.002300  -72.500000
-0.000800  -72.500000
0.000700  -72.500000
0.002200  -72.500000
0.001500  -72.200000
0.000700  -72.500000
0.001500  -72.800000
0.000700  -72.300000
0.001500  -72.600000
0.000700  -72.200000
0.000700  -72.500000
0.002200  -72.400000
0.004500  -72.300000
0.006000  -72.500000
0.004500  -72.400000
0.003000  -72.600000
0.003000  -72.300000
0.003000  -72.700000
-0.000800  -72.500000
-0.006800  -72.500000
-0.006000  -72.400000
-0.006000  -72.400000
-0.007500  -72.500000
-0.005300  -72.400000
-0.007500  -72.600000
-0.007500  -72.300000
-0.005300  -72.700000
-0.004600  -72.300000
-0.002300  -72.700000
-0.002300  -72.300000
-0.001500  -72.600000
-0.003000  -72.200000
-0.001500  -72.600000
-0.003000  -72.500000
-0.004600  -72.400000
-0.003800  -72.500000
-0.005300  -72.500000
-0.006000  -72.400000
-0.004600  -72.500000
-0.005300  -72.500000
-0.003800  -72.400000
-0.001500  -72.500000
-0.000800  -72.300000
-0.000800  -72.600000
0.000000  -72.500000
0.000700  -72.600000
0.003700  -72.600000
0.004500  -72.300000
0.005200  -72.600000
0.004500  -72.200000
0.005200  -72.400000
0.006700  -72.500000
0.006700  -72.500000
0.005200  -72.500000
0.005200  -72.700000
0.006000  -72.300000
0.003000  -72.600000
0.004500  -72.200000
0.004500  -72.500000
0.003000  -72.400000
0.003000  -72.400000
0.003000  -72.500000
0.001500  -72.400000
0.001500  -72.600000
0.000700  -72.300000
0.000000  -72.600000
0.000700  -72.500000
-0.000800  -72.400000
-0.000800  -72.500000
-0.001500  -72.500000
-0.002300  -72.200000
-0.001500  -72.600000
-0.000800  -72.200000
-0.001500  -72.600000
-0.004600  -72.500000
-0.003000  -72.500000
-0.002300  -72.500000
-0.000800  -72.200000
-0.001500  -72.700000
-0.004600  -72.200000
-0.003000  -72.700000
-0.005300  -72.300000
-0.005300  -72.500000
-0.004600  -72.500000
-0.004600  -72.400000
-0.004600  -72.400000
-0.001500  -72.600000
-0.000800  -72.500000
0.000700  -72.400000
-0.000800  -72.500000
-0.003000  -72.300000
-0.002300  -72.700000
-0.003800  -72.200000
-0.004600  -72.700000
-0.003000  -72.200000
-0.003000  -72.500000
-0.003000  -72.200000
-0.002300  -72.500000
0.000000  -72.500000
0.005200  -72.300000
0.005200  -72.400000
0.003000  -72.500000
0.002200  -72.200000
0.000000  -72.500000
-0.001500  -72.500000
-0.001500  -72.400000
0.000000  -72.500000
-0.000800  -72.300000
-0.003800  -72.600000
-0.002300  -72.500000
-0.001500  -72.500000
-0.001500  -72.500000
-0.000800  -72.500000
0.000700  -72.500000
0.000700  -72.500000
0.001500  -72.500000
0.002200  -72.500000
0.000700  -72.500000
-0.000800  -72.400000
0.000700  -72.500000
0.000700  -72.200000
0.000700  -72.700000
0.000700  -72.200000
0.001500  -72.600000
0.000700  -72.400000
-0.001500  -72.600000
-0.003000  -72.500000
-0.001500  -72.500000
-0.003000  -72.500000
-0.005300  -72.300000
-0.005300  -72.400000
-0.003800  -72.400000
0.000000  -72.500000
0.000000  -72.500000
-0.001500  -72.800000
-0.000800  -72.200000
0.000700  -72.700000
0.000700  -72.500000
0.001500  -72.500000
0.000000  -72.400000
-0.001500  -72.500000
-0.003000  -72.600000
-0.005300  -72.400000
-0.002300  -72.800000
-0.003000  -72.200000
-0.005300  -72.500000
-0.004600  -72.500000
-0.002300  -72.600000
-0.001500  -72.500000
-0.003000  -72.500000
-0.001500  -72.500000
0.000000  -72.500000
0.000000  -72.600000
0.001500  -72.300000
0.001500  -72.600000
0.000700  -72.300000
0.000700  -72.600000
0.000700  -72.300000
-0.000800  -72.600000
-0.003000  -72.300000
-0.001500  -72.500000
-0.001500  -72.700000
-0.003800  -72.300000
-0.003000  -72.500000
-0.001500  -72.500000
-0.001500  -72.200000
-0.003000  -72.400000
-0.004600  -72.500000
-0.002300  -72.500000
-0.000800  -72.500000
-0.000800  -72.300000
-0.001500  -72.600000
0.000000  -72.400000
0.002200  -72.500000
0.000700  -72.400000
-0.001500  -72.500000
-0.003000  -72.500000
-0.002300  -72.200000
-0.001500  -72.500000
0.000000  -72.600000
-0.001500  -72.500000
-0.003000  -72.500000
-0.000800  -72.700000
-0.000800  -72.200000
-0.001500  -72.600000
-0.001500  -72.300000
-0.000800  -72.800000
-0.000800  -72.300000
0.001500  -72.400000
0.002200  -72.400000
0.001500  -72.400000
0.001500  -72.500000
0.001500  -72.200000
0.001500  -72.500000
0.000000  -72.500000
0.000700  -72.300000
-0.000800  -72.500000
-0.001500  -72.400000
0.000000  -72.200000
-0.001500  -72.500000
-0.001500  -72.300000
-0.003000  -72.600000
-0.004600  -72.400000
-0.003000  -72.500000
-0.002300  -72.600000
-0.001500  -72.300000
-0.000800  -72.500000
-0.000800  -72.200000
-0.001500  -72.700000
-0.001500  -72.400000
-0.001500  -72.500000
-0.001500  -72.500000
-0.001500  -72.500000
-0.003800  -72.300000
-0.001500  -72.500000
-0.000800  -72.400000
-0.002300  -72.300000
-0.003000  -72.500000
-0.004600  -72.400000
-0.003800  -72.600000
-0.004600  -72.200000
-0.003000  -72.800000
0.000000  -72.300000
-0.000800  -72.600000
0.000700  -72.400000
0.000700  -72.300000
-0.001500  -72.500000
-0.003000  -72.400000
-0.001500  -72.300000
-0.003000  -72.600000
-0.003800  -72.400000
-0.005300  -72.500000
-0.004600  -72.500000
-0.001500  -72.500000
-0.001500  -72.500000
-0.001500  -72.300000
-0.003800  -72.500000
-0.005300  -72.200000
-0.006800  -72.500000
-0.004600  -72.500000
0.000000  -72.300000
0.003000  -72.500000
0.004500  -72.600000
0.003700  -72.400000
0.005200  -72.400000
0.008200  -72.500000
0.010500  -72.200000
0.009700  -72.700000
0.006700  -72.200000
0.004500  -72.500000
0.004500  -72.400000
0.002200  -72.600000
0.000700  -72.400000
0.001500  -72.400000
0.000000  -72.600000
0.002200  -72.400000
0.004500  -72.500000
0.003000  -72.400000
0.002200  -72.400000
0.000000  -72.500000
-0.000800  -72.400000
-0.002300  -72.400000
-0.001500  -72.700000
-0.001500  -72.200000
-0.003000  -72.600000
-0.003800  -72.200000
-0.004600  -72.500000
-0.004600  -72.400000
-0.002300  -72.400000
-0.001500  -72.500000
-0.005300  -72.200000
-0.006800  -72.800000
-0.006800  -72.200000
-0.005300  -72.400000
-0.003800  -72.400000
-0.005300  -72.500000
-0.006800  -72.300000
-0.008300  -72.400000
-0.009100  -72.300000
-0.006800  -72.500000
-0.006800  -72.500000
-0.004600  -72.300000
-0.004600  -72.500000
-0.003000  -72.300000
-0.001500  -72.600000
-0.003000  -72.300000
-0.001500  -72.700000
-0.001500  -72.100000
-0.000800  -72.400000
0.000000  -72.400000
0.000000  -72.500000
0.000000  -72.300000
0.000700  -72.500000
0.001500  -72.500000
0.003000  -72.500000
0.003000  -72.400000
0.004500  -72.300000
0.004500  -72.500000
0.003000  -72.200000
0.003000  -72.500000
0.004500  -72.500000
0.006000  -72.300000
0.003700  -72.500000
0.003000  -72.400000
0.003000  -72.600000
0.000700  -72.200000
0.001500  -72.400000
0.001500  -72.500000
0.000700  -72.300000
-0.000800  -72.200000
-0.001500  -72.700000
-0.003000  -72.300000
-0.004600  -72.500000
-0.006800  -72.300000
-0.008300  -72.500000
-0.007500  -72.300000
-0.006000  -72.400000
-0.003800  -72.500000
-0.003000  -72.200000
-0.002300  -72.500000
-0.000800  -72.300000
-0.000800  -72.400000
-0.001500  -72.500000
-0.001500  -72.400000
0.000000  -72.400000
0.003000  -72.500000
0.003000  -72.200000
0.001500  -72.500000
-0.000800  -72.400000
-0.002300  -72.400000
-0.001500  -72.500000
-0.000800  -72.300000
-0.000800  -72.500000
0.000700  -72.300000
0.000700  -72.600000
0.000700  -72.200000
0.001500  -72.600000
0.000700  -72.400000
-0.000800  -72.500000
0.001500  -72.400000
0.003000  -72.400000
0.004500  -72.500000
0.003000  -72.200000
0.003000  -72.500000
0.002200  -72.100000
0.003000  -72.600000
0.000700  -72.200000
-0.001500  -72.500000
-0.000800  -72.200000
-0.002300  -72.500000
-0.004600  -72.300000
-0.006000  -72.400000
-0.006000  -72.600000
-0.004600  -72.400000
-0.003000  -72.400000
-0.003000  -72.500000
-0.004600  -72.200000
-0.003800  -72.400000
-0.005300  -72.400000
-0.003800  -72.200000
-0.003000  -72.500000
-0.003000  -72.200000
-0.001500  -72.600000
-0.004600  -72.400000
-0.004600  -72.400000
-0.001500  -72.400000
0.000700  -72.200000
0.000700  -72.500000
-0.003000  -72.200000
-0.003000  -72.400000
-0.004600  -72.500000
-0.005300  -72.400000
-0.003000  -72.400000
0.000000  -72.600000
-0.000800  -72.200000
0.000000  -72.500000
0.000000  -72.300000
0.000700  -72.600000
-0.000800  -72.400000
-0.000800  -72.500000
0.000700  -72.500000
-0.000800  -72.200000
-0.001500  -72.500000
-0.000800  -72.300000
-0.000800  -72.500000
0.002200  -72.300000
0.005200  -72.400000
0.005200  -72.400000
0.005200  -72.500000
0.004500  -72.100000
0.003700  -72.500000
0.004500  -72.300000
0.003700  -72.300000
0.005200  -72.500000
0.005200  -72.200000
0.002200  -72.500000
0.001500  -72.200000
0.002200  -72.500000
0.000700  -72.100000
-0.000800  -72.500000
0.001500  -72.300000
0.000700  -72.500000
0.001500  -72.500000
0.000700  -72.400000
-0.003000  -72.300000
-0.001500  -72.200000
-0.000800  -72.500000
-0.000800  -72.200000
0.000700  -72.500000
-0.000800  -72.000000
-0.001500  -72.500000
-0.003000  -72.200000
-0.006800  -72.400000
-0.003800  -72.300000
-0.002300  -72.300000
-0.003800  -72.500000
-0.006000  -72.200000
-0.004600  -72.400000
-0.003000  -72.400000
-0.004600  -72.300000
-0.006800  -72.500000
-0.006800  -72.500000
-0.005300  -72.200000
-0.005300  -72.500000
-0.006800  -72.100000
-0.004600  -72.500000
-0.004600  -72.400000
-0.003800  -72.300000
-0.004600  -72.500000
-0.004600  -72.200000
-0.005300  -72.500000
-0.006800  -72.000000
-0.006800  -72.400000
-0.004600  -72.300000
-0.003800  -72.300000
-0.004600  -72.400000
-0.006800  -72.500000
-0.007500  -72.000000
-0.006800  -72.500000
-0.004600  -72.200000
-0.001500  -72.300000
0.000000  -72.300000
0.000700  -72.300000
0.001500  -72.500000
0.003000  -72.200000
0.004500  -72.500000
0.006000  -72.100000
0.008200  -72.300000
0.008200  -72.400000
0.006700  -72.400000
0.006000  -72.300000
0.005200  -72.400000
0.003700  -72.200000
0.003700  -72.500000
0.003700  -72.200000
0.000700  -72.300000
-0.000800  -72.300000
-0.001500  -72.100000
-0.003000  -72.500000
-0.004600  -72.100000
-0.005300  -72.500000
-0.004600  -72.300000
-0.001500  -72.500000
-0.002300  -72.300000
-0.001500  -72.300000
-0.001500  -72.200000
-0.003000  -72.400000
-0.001500  -72.200000
0.000700  -72.400000
0.000700  -72.300000
0.001500  -72.200000
0.002200  -72.500000
0.000700  -72.100000
-0.000800  -72.600000
-0.000800  -72.100000
-0.000800  -72.500000
0.001500  -72.200000
0.004500  -72.500000
0.004500  -72.300000
0.001500  -72.200000
0.000700  -72.500000
0.000700  -72.200000
-0.000800  -72.200000
-0.000800  -72.400000
-0.001500  -72.300000
-0.001500  -72.300000
0.000700  -72.300000
-0.001500  -72.200000
-0.001500  -72.400000
-0.001500  -72.200000
-0.003000  -72.400000
-0.001500  -72.300000
-0.000800  -72.200000
0.003000  -72.300000
0.003700  -72.200000
0.004500  -72.400000
0.004500  -72.100000
0.003000  -72.300000
0.003700  -72.400000
0.001500  -72.300000
0.000700  -72.200000
-0.001500  -72.500000
-0.006800  -72.000000
-0.009100  -72.700000
-0.010500  -72.100000
-0.008300  -72.500000
-0.004600  -72.300000
-0.007500  -72.300000
-0.011300  -72.400000
-0.005300  -72.200000
0.001500  -72.400000
0.006700  -72.300000
0.010500  -72.500000
0.014200  -72.400000
0.010500  -72.200000
0.005200  -72.400000
0.001500  -72.700000
-0.001500  -72.200000
