File Name: 12sitting.log
Channel 3: 'Vasto Medial', 32080 values, engineering units: mV, no filters.
Channel 5: 'Flexo', 32080 values, engineering units: deg, no filters.
Digitals combined (event=16, d=8, c=4, b=2, a=1): 32080 values, .
-0.006800  -1.400000
-0.021000  -1.500000
-0.012000  -1.100000
-0.004600  -1.400000
0.006000  -1.600000
0.021000  -1.100000
0.026200  -1.500000
0.034500  -1.400000
0.036700  -1.300000
0.027700  -1.400000
0.018000  -1.400000
0.006700  -1.300000
-0.005300  -1.500000
-0.010500  -1.400000
-0.005300  -1.500000
-0.003800  -1.600000
-0.005300  -1.300000
-0.001500  -1.300000
-0.004600  -1.500000
-0.007500  -1.300000
-0.008300  -1.600000
-0.010500  -1.300000
-0.010500  -1.200000
-0.009100  -1.600000
-0.008300  -1.200000
-0.008300  -1.500000
-0.006800  -1.200000
-0.007500  -1.400000
-0.006800  -1.400000
-0.005300  -1.400000
-0.006800  -1.400000
-0.005300  -1.300000
-0.004600  -1.400000
-0.004600  -1.400000
-0.005300  -1.500000
-0.006000  -1.100000
-0.006800  -1.600000
-0.006800  -1.100000
-0.004600  -1.600000
-0.003000  -1.200000
-0.002300  -1.500000
-0.001500  -1.200000
-0.000800  -1.300000
0.000700  -1.400000
0.002200  -1.400000
0.000700  -1.300000
0.000700  -1.100000
-0.000800  -1.300000
-0.001500  -1.200000
0.000000  -1.400000
-0.000800  -1.000000
-0.000800  -1.100000
0.001500  -0.900000
-0.000800  -1.000000
0.000000  -1.100000
0.001500  -0.800000
0.000000  -0.900000
-0.000800  -0.500000
0.000700  -1.100000
-0.000800  -0.700000
-0.001500  -0.700000
-0.003000  -0.900000
-0.003000  -0.800000
-0.002300  -0.500000
-0.003000  -0.800000
0.001500  -0.500000
0.004500  -0.700000
0.004500  -0.700000
0.006700  -0.500000
0.006700  -0.800000
0.005200  -0.500000
0.005200  -0.600000
0.003000  -0.600000
0.001500  -0.400000
0.001500  -0.600000
-0.001500  -0.200000
-0.008300  -0.400000
-0.015000  -0.300000
-0.017300  -0.400000
-0.011300  -0.200000
-0.006000  -0.500000
0.000700  0.000000
0.009000  -0.500000
0.015700  -0.200000
0.021000  -0.400000
0.021000  -0.200000
0.014200  -0.200000
0.006700  -0.500000
0.000700  0.000000
-0.008300  -0.400000
-0.012800  -0.100000
-0.010500  -0.200000
-0.011300  0.000000
-0.012000  -0.200000
-0.010500  0.000000
-0.006800  0.000000
-0.003000  0.100000
0.001500  0.000000
0.004500  0.000000
0.006700  0.300000
0.003000  -0.100000
-0.000800  0.300000
0.000000  0.000000
-0.001500  0.300000
-0.000800  0.200000
0.000700  0.300000
0.005200  0.300000
0.005200  0.400000
0.000000  0.400000
-0.005300  0.400000
-0.006000  0.200000
-0.004600  0.200000
-0.006800  0.600000
-0.006800  0.300000
-0.006800  0.700000
-0.006800  0.400000
-0.007500  0.400000
-0.006800  0.400000
-0.006800  0.400000
-0.006800  0.600000
-0.006800  0.400000
-0.003800  0.700000
-0.000800  0.500000
-0.002300  0.600000
-0.002300  0.500000
-0.002300  0.600000
-0.001500  0.600000
-0.001500  0.600000
-0.002300  0.600000
-0.001500  0.400000
-0.002300  0.700000
-0.003800  0.500000
-0.001500  0.700000
-0.000800  0.300000
-0.002300  0.500000
-0.001500  0.400000
-0.000800  0.500000
-0.000800  0.500000
-0.000800  0.400000
0.000700  0.600000
-0.001500  0.700000
-0.001500  0.500000
0.001500  0.800000
-0.001500  0.700000
-0.000800  0.600000
0.000700  0.900000
0.000000  0.700000
0.000000  0.700000
-0.000800  0.700000
0.000700  0.600000
-0.000800  0.800000
-0.000800  0.500000
0.000700  0.900000
0.000700  0.500000
0.000700  0.900000
0.000700  0.800000
0.003000  0.900000
0.001500  0.900000
0.002200  0.900000
0.003000  0.700000
0.003700  1.000000
0.004500  0.900000
0.002200  0.900000
0.001500  0.900000
0.000700  0.700000
-0.000800  0.900000
-0.001500  0.800000
0.000700  0.900000
0.000700  1.000000
-0.000800  0.900000
0.000700  1.100000
-0.000800  1.000000
0.000000  1.100000
-0.000800  1.100000
-0.001500  1.000000
-0.001500  1.000000
-0.000800  1.300000
-0.000800  0.900000
-0.001500  1.500000
-0.001500  1.100000
-0.001500  1.300000
-0.000800  1.200000
0.000700  1.200000
0.000700  1.400000
0.000000  1.300000
-0.000800  1.600000
-0.003000  1.100000
-0.003000  1.500000
-0.001500  1.500000
-0.001500  1.400000
-0.001500  1.500000
-0.001500  1.700000
0.001500  1.400000
0.002200  1.800000
-0.000800  1.500000
0.000000  1.600000
-0.000800  1.800000
0.000000  1.500000
-0.000800  1.900000
-0.000800  1.500000
0.000700  2.000000
-0.000800  1.500000
-0.001500  1.800000
-0.002300  1.800000
-0.000800  1.900000
0.000000  1.800000
-0.001500  1.800000
-0.000800  2.000000
-0.000800  1.800000
0.000000  2.000000
-0.001500  1.800000
-0.000800  2.300000
-0.000800  1.700000
-0.002300  2.100000
-0.001500  2.000000
-0.001500  2.100000
-0.002300  1.900000
-0.000800  1.900000
-0.000800  2.200000
0.000000  2.100000
0.000000  2.000000
0.000700  2.200000
-0.001500  2.200000
-0.003000  2.100000
-0.003000  2.400000
-0.001500  2.300000
0.001500  2.200000
0.000700  2.400000
0.000700  2.300000
0.000000  2.600000
-0.000800  2.200000
0.000000  2.600000
-0.000800  2.100000
-0.000800  2.400000
-0.001500  2.400000
-0.001500  2.200000
-0.001500  2.400000
-0.001500  2.400000
-0.000800  2.300000
-0.000800  2.400000
0.000000  2.400000
-0.000800  2.300000
-0.003000  2.500000
-0.001500  2.200000
-0.000800  2.600000
-0.001500  2.400000
-0.000800  2.300000
-0.003000  2.500000
-0.001500  2.200000
-0.003000  2.700000
-0.003800  2.200000
-0.000800  2.300000
-0.002300  2.400000
-0.002300  2.500000
-0.003000  2.200000
-0.003000  2.700000
-0.000800  2.300000
0.000700  2.700000
0.003000  2.400000
0.003700  2.400000
0.003000  2.700000
0.001500  2.300000
0.000700  2.600000
-0.000800  2.400000
-0.002300  2.500000
-0.004600  2.400000
-0.004600  2.400000
-0.003000  2.500000
-0.001500  2.500000
0.000000  2.600000
-0.000800  2.600000
-0.001500  2.400000
0.000700  2.400000
0.001500  2.600000
0.002200  2.200000
0.003000  2.700000
0.003000  2.300000
0.000700  2.600000
0.000000  2.300000
-0.000800  2.400000
-0.001500  2.400000
-0.003000  2.400000
-0.005300  2.400000
-0.003000  2.500000
-0.002300  2.400000
-0.004600  2.200000
-0.003000  2.600000
-0.003800  2.200000
-0.004600  2.600000
-0.002300  2.300000
-0.001500  2.400000
-0.003000  2.400000
-0.004600  2.300000
-0.003800  2.500000
-0.003800  2.100000
-0.003000  2.600000
-0.003800  2.100000
-0.003800  2.400000
-0.000800  2.200000
-0.001500  2.100000
-0.000800  2.200000
0.003000  2.200000
0.005200  2.100000
0.008200  2.100000
0.010500  2.400000
0.006000  1.900000
0.003000  2.300000
0.001500  1.900000
-0.000800  2.200000
-0.001500  2.100000
-0.001500  2.000000
-0.003800  2.200000
-0.006000  1.800000
-0.006800  2.200000
-0.004600  1.900000
-0.002300  2.000000
-0.001500  1.800000
-0.001500  1.800000
-0.001500  1.800000
-0.003000  2.000000
-0.005300  1.800000
-0.006000  1.800000
-0.005300  1.900000
-0.004600  1.600000
-0.003000  2.000000
-0.000800  1.500000
-0.002300  1.800000
-0.003000  1.600000
0.000700  1.800000
-0.000800  1.700000
-0.000800  1.500000
0.000700  1.500000
0.000700  1.600000
0.000700  1.400000
0.001500  1.600000
0.001500  1.400000
0.000700  1.300000
-0.000800  1.500000
0.000700  1.300000
0.002200  1.300000
0.001500  1.300000
0.001500  1.200000
-0.000800  1.300000
-0.000800  1.200000
0.000000  1.300000
-0.000800  0.900000
-0.003000  0.900000
-0.003000  0.900000
-0.000800  0.900000
-0.000800  0.900000
0.001500  1.100000
0.001500  0.700000
-0.001500  1.000000
-0.003000  0.600000
-0.001500  1.000000
-0.000800  0.700000
-0.000800  0.700000
-0.000800  0.800000
-0.000800  0.400000
-0.003000  0.600000
-0.000800  0.600000
0.001500  0.500000
0.002200  0.400000
0.003000  0.400000
0.001500  0.300000
-0.000800  0.100000
-0.001500  0.000000
-0.001500  0.100000
-0.003000  -0.100000
-0.003800  0.000000
-0.003000  -0.100000
-0.003800  -0.200000
-0.003000  0.100000
0.000700  -0.500000
0.001500  -0.200000
0.002200  -0.500000
0.002200  -0.200000
0.004500  -0.500000
0.000700  -0.500000
-0.002300  -0.700000
0.001500  -0.600000
-0.000800  -0.700000
-0.000800  -0.900000
-0.003000  -0.800000
-0.004600  -1.100000
-0.003000  -0.900000
-0.003000  -1.300000
-0.003000  -1.000000
-0.004600  -1.500000
-0.003000  -1.400000
-0.004600  -1.200000
-0.004600  -1.500000
-0.002300  -1.300000
-0.001500  -1.700000
0.001500  -1.600000
0.000000  -1.700000
-0.003000  -1.900000
-0.005300  -2.000000
-0.004600  -1.900000
0.000700  -2.000000
0.006000  -2.300000
0.004500  -2.100000
0.004500  -2.300000
0.005200  -2.300000
0.006700  -2.700000
0.009700  -2.400000
0.010500  -2.700000
0.010500  -2.500000
0.010500  -2.900000
0.006700  -2.800000
-0.000800  -2.900000
-0.009100  -3.100000
-0.010500  -3.200000
-0.010500  -3.000000
-0.009800  -3.400000
-0.010500  -3.400000
-0.010500  -3.300000
-0.009100  -3.700000
-0.009800  -3.500000
-0.006800  -3.800000
-0.006800  -3.600000
-0.006000  -3.800000
-0.001500  -4.000000
-0.001500  -3.600000
-0.000800  -4.100000
-0.000800  -4.000000
-0.001500  -4.300000
-0.001500  -4.300000
-0.001500  -4.500000
-0.000800  -4.400000
0.000000  -4.800000
0.001500  -4.500000
0.000700  -4.900000
0.000000  -4.800000
0.000000  -5.100000
-0.000800  -5.000000
-0.000800  -5.100000
-0.000800  -5.300000
-0.000800  -5.100000
-0.000800  -5.400000
-0.000800  -5.200000
-0.000800  -5.400000
0.000700  -5.500000
0.000700  -5.500000
-0.000800  -5.700000
-0.000800  -5.800000
-0.001500  -5.700000
-0.001500  -6.100000
-0.001500  -6.200000
0.000700  -6.100000
0.000700  -6.400000
-0.000800  -6.000000
0.000000  -6.600000
-0.001500  -6.300000
0.000700  -6.700000
-0.001500  -6.700000
-0.003000  -6.700000
-0.003000  -7.000000
-0.003800  -6.900000
-0.005300  -6.900000
-0.012800  -7.000000
-0.012000  -7.300000
-0.005300  -7.200000
-0.004600  -7.600000
0.003000  -7.500000
0.009700  -7.800000
0.013500  -7.700000
0.017200  -8.000000
0.017200  -8.000000
0.015700  -8.100000
0.011200  -8.500000
0.005200  -8.200000
-0.000800  -8.800000
-0.004600  -8.600000
-0.007500  -8.800000
-0.009100  -8.900000
-0.012000  -8.900000
-0.014300  -9.000000
-0.018800  -9.100000
-0.019500  -9.400000
-0.015800  -9.500000
-0.010500  -9.900000
-0.005300  -9.600000
0.000700  -10.100000
0.006700  -9.900000
0.011200  -10.300000
0.012700  -10.300000
0.012000  -10.400000
0.006000  -10.600000
0.003000  -10.600000
-0.002300  -10.900000
-0.009800  -10.900000
-0.019500  -11.000000
-0.025600  -11.200000
-0.023300  -11.500000
-0.015800  -11.600000
-0.006000  -11.800000
-0.003000  -11.900000
-0.000800  -12.100000
0.005200  -12.200000
0.018000  -12.400000
0.030700  -12.600000
0.034500  -12.600000
0.038200  -13.100000
0.039000  -12.900000
0.028500  -13.400000
0.008200  -13.300000
-0.005300  -13.600000
-0.007500  -13.800000
-0.009100  -14.100000
-0.012800  -13.900000
-0.013500  -14.600000
-0.016500  -14.500000
-0.022500  -14.900000
-0.021800  -15.100000
-0.018100  -15.200000
-0.015800  -15.600000
-0.010500  -15.500000
-0.004600  -16.000000
-0.000800  -16.000000
0.000700  -16.200000
0.002200  -16.700000
0.004500  -16.700000
0.008200  -16.900000
0.007500  -17.200000
-0.002300  -17.200000
-0.014300  -17.600000
-0.027000  -17.600000
-0.033000  -18.100000
-0.030800  -18.400000
-0.027000  -18.400000
-0.015800  -19.100000
-0.006000  -18.800000
0.004500  -19.500000
0.016500  -19.500000
0.023200  -19.900000
0.027700  -20.100000
0.027000  -20.200000
0.018000  -20.400000
0.008200  -20.600000
-0.000800  -20.700000
-0.009800  -20.800000
-0.016500  -21.400000
-0.018100  -21.300000
-0.015800  -21.700000
-0.012800  -21.700000
-0.006800  -22.400000
-0.002300  -22.300000
-0.002300  -22.700000
0.000000  -22.800000
0.000700  -22.900000
-0.000800  -23.500000
-0.003000  -23.300000
-0.004600  -23.900000
-0.003000  -24.000000
-0.000800  -24.200000
0.001500  -24.300000
0.002200  -24.800000
0.004500  -24.800000
0.005200  -25.200000
0.005200  -25.400000
0.006700  -25.500000
0.006700  -25.900000
0.007500  -26.000000
0.006700  -26.400000
0.005200  -26.200000
0.004500  -27.000000
0.006700  -26.800000
0.005200  -27.100000
0.000700  -27.200000
0.000000  -27.600000
-0.000800  -27.700000
0.001500  -27.900000
0.000000  -28.000000
-0.001500  -28.300000
-0.003000  -28.600000
-0.003800  -28.500000
-0.000800  -29.100000
-0.003800  -29.000000
-0.002300  -29.400000
0.000700  -29.600000
0.000700  -29.800000
0.000700  -30.200000
0.001500  -30.100000
0.003000  -30.600000
0.003000  -30.400000
0.002200  -30.800000
0.000700  -30.800000
0.000700  -31.100000
0.003000  -31.100000
0.003000  -31.700000
0.001500  -31.500000
0.000700  -32.000000
0.000700  -32.000000
0.000700  -32.400000
-0.000800  -32.600000
-0.001500  -32.700000
-0.001500  -33.000000
-0.003000  -33.000000
-0.000800  -33.500000
0.000000  -33.400000
0.000000  -33.600000
0.000000  -33.900000
0.000000  -34.000000
-0.000800  -34.100000
0.000700  -34.300000
0.000700  -34.200000
0.002200  -34.300000
0.001500  -34.700000
0.002200  -34.600000
0.003000  -35.100000
0.001500  -34.800000
0.001500  -35.500000
0.000700  -35.200000
-0.000800  -35.700000
0.000700  -35.700000
0.001500  -35.800000
0.003000  -36.000000
0.004500  -36.000000
0.001500  -36.100000
0.003700  -36.400000
0.008200  -36.600000
0.006700  -36.300000
0.005200  -36.900000
0.001500  -36.600000
-0.001500  -36.900000
-0.004600  -36.900000
-0.006000  -37.400000
-0.004600  -37.100000
-0.003800  -37.300000
-0.006800  -37.500000
-0.008300  -37.400000
-0.006800  -37.800000
-0.003000  -37.600000
0.001500  -37.600000
0.000700  -37.600000
-0.003800  -37.800000
-0.006800  -37.800000
-0.008300  -38.100000
-0.006800  -37.900000
-0.006800  -38.100000
-0.004600  -38.100000
-0.003000  -38.200000
-0.005300  -38.400000
-0.007500  -38.100000
-0.006000  -38.700000
-0.005300  -38.400000
-0.003800  -38.700000
-0.003000  -38.500000
-0.004600  -38.900000
-0.005300  -39.000000
-0.003800  -38.900000
-0.004600  -39.100000
-0.004600  -39.300000
-0.003800  -39.200000
-0.003000  -39.500000
-0.001500  -39.400000
-0.002300  -39.400000
-0.003800  -39.700000
-0.004600  -39.500000
-0.001500  -39.700000
-0.003000  -39.800000
-0.003800  -39.900000
-0.001500  -40.000000
-0.000800  -40.100000
0.001500  -40.400000
0.003000  -40.400000
0.003000  -40.500000
0.003000  -40.600000
0.003700  -40.700000
0.003000  -40.500000
0.001500  -40.900000
0.000700  -40.700000
0.000700  -41.100000
0.001500  -40.800000
0.001500  -41.300000
0.000700  -40.800000
0.000700  -40.900000
0.000700  -41.300000
0.001500  -41.100000
0.003000  -41.500000
0.001500  -41.400000
0.000700  -41.300000
0.000700  -41.500000
0.000700  -41.800000
0.000000  -41.400000
0.001500  -41.600000
0.001500  -41.400000
-0.000800  -41.700000
0.000000  -41.700000
0.002200  -41.500000
0.001500  -41.800000
0.000700  -41.500000
-0.002300  -41.900000
-0.003000  -41.700000
-0.000800  -41.900000
-0.003000  -41.900000
-0.002300  -41.800000
0.000700  -41.900000
0.001500  -41.900000
-0.002300  -41.900000
-0.004600  -42.000000
-0.001500  -42.000000
-0.001500  -41.800000
-0.001500  -42.000000
0.000000  -41.700000
-0.000800  -42.200000
0.000700  -41.800000
-0.000800  -42.100000
-0.000800  -41.900000
-0.001500  -41.900000
-0.003000  -42.100000
-0.001500  -41.700000
-0.000800  -42.000000
-0.001500  -41.900000
-0.002300  -42.000000
-0.001500  -42.200000
-0.002300  -42.000000
-0.003000  -42.000000
-0.002300  -42.100000
-0.003000  -42.100000
-0.002300  -42.000000
-0.000800  -42.100000
0.000700  -41.900000
-0.000800  -42.200000
-0.001500  -41.900000
-0.000800  -42.300000
0.000000  -41.900000
0.000700  -42.100000
0.000000  -42.100000
0.000700  -42.100000
0.001500  -42.200000
0.000000  -42.300000
0.000000  -42.100000
0.000700  -42.300000
0.002200  -42.100000
0.003000  -42.100000
0.001500  -42.400000
0.002200  -42.000000
0.002200  -42.100000
0.003000  -42.100000
0.002200  -42.000000
0.000000  -42.200000
0.001500  -42.000000
0.001500  -42.300000
0.000700  -42.100000
0.000700  -41.900000
-0.002300  -41.900000
-0.002300  -41.900000
-0.003000  -41.600000
-0.005300  -41.900000
-0.005300  -41.600000
-0.003000  -41.900000
-0.002300  -41.300000
-0.004600  -41.500000
-0.003800  -41.500000
-0.003000  -41.400000
-0.003800  -41.200000
-0.005300  -41.000000
-0.004600  -41.100000
-0.001500  -41.000000
-0.002300  -40.800000
-0.001500  -40.700000
-0.003000  -40.800000
-0.003000  -40.500000
-0.005300  -40.700000
-0.003800  -40.300000
0.000000  -40.300000
-0.000800  -40.300000
-0.000800  -40.000000
-0.001500  -40.300000
-0.003000  -39.700000
-0.004600  -40.100000
-0.003800  -39.500000
-0.001500  -39.700000
-0.001500  -39.500000
0.000000  -39.400000
-0.003000  -39.200000
-0.002300  -39.200000
-0.000800  -39.200000
-0.000800  -38.900000
0.000700  -39.100000
-0.002300  -38.700000
-0.001500  -38.900000
-0.000800  -38.400000
0.000000  -38.600000
0.002200  -38.300000
0.002200  -38.200000
0.001500  -38.200000
0.003000  -38.000000
0.004500  -37.900000
0.003700  -37.500000
0.003700  -37.700000
0.003000  -37.600000
0.003000  -37.600000
0.003000  -37.400000
0.000700  -37.400000
0.000700  -37.200000
0.000700  -37.000000
-0.000800  -37.200000
0.001500  -36.900000
0.001500  -37.100000
-0.000800  -36.500000
0.000700  -36.800000
0.000700  -36.500000
0.002200  -36.600000
0.002200  -36.400000
0.003700  -36.300000
0.003000  -36.300000
-0.000800  -36.300000
-0.000800  -36.000000
-0.003000  -36.000000
-0.003000  -35.900000
-0.004600  -35.800000
-0.003000  -35.800000
-0.000800  -35.600000
-0.001500  -35.700000
-0.000800  -35.500000
-0.000800  -35.500000
-0.000800  -35.600000
0.000700  -35.100000
0.000700  -35.200000
0.000000  -34.800000
-0.001500  -35.100000
-0.003800  -34.700000
-0.003000  -34.700000
-0.003800  -34.600000
-0.004600  -34.500000
-0.003800  -34.300000
-0.001500  -34.600000
-0.001500  -34.300000
-0.002300  -34.200000
-0.001500  -34.300000
-0.003000  -34.000000
-0.003800  -34.000000
-0.004600  -33.800000
-0.003800  -33.700000
-0.003800  -33.800000
-0.003000  -33.500000
-0.000800  -33.700000
0.000000  -33.400000
-0.001500  -33.200000
-0.001500  -33.300000
-0.001500  -33.200000
-0.006800  -33.000000
-0.006000  -33.200000
-0.006800  -32.600000
-0.008300  -33.000000
-0.006800  -32.700000
-0.004600  -32.900000
-0.004600  -32.600000
-0.006000  -32.500000
-0.003000  -32.600000
-0.002300  -32.200000
-0.003000  -32.400000
-0.003000  -32.100000
-0.003000  -32.000000
-0.004600  -32.000000
-0.004600  -32.000000
-0.003000  -31.900000
-0.002300  -31.900000
-0.000800  -31.600000
-0.000800  -31.600000
0.000700  -31.700000
0.002200  -31.400000
0.000700  -31.500000
0.001500  -31.100000
-0.000800  -31.400000
-0.002300  -30.900000
0.003000  -31.200000
0.008200  -30.800000
0.007500  -31.000000
0.002200  -30.700000
-0.000800  -30.800000
-0.003000  -30.500000
-0.005300  -30.600000
-0.008300  -30.500000
-0.012000  -30.200000
-0.017300  -30.500000
-0.019500  -30.100000
-0.015800  -30.400000
-0.012000  -30.000000
-0.008300  -30.000000
-0.000800  -30.000000
0.005200  -29.700000
0.010500  -29.800000
0.014200  -29.600000
0.014200  -29.700000
0.015000  -29.400000
0.012700  -29.500000
0.012000  -29.400000
0.009000  -29.300000
-0.001500  -29.100000
-0.007500  -29.100000
-0.012000  -29.100000
-0.016500  -28.900000
-0.017300  -29.200000
-0.014300  -28.700000
-0.012800  -29.000000
-0.013500  -28.500000
-0.010500  -28.700000
-0.008300  -28.500000
-0.006800  -28.400000
0.000700  -28.500000
0.012700  -28.400000
0.023200  -28.300000
0.027700  -28.100000
0.024000  -27.900000
0.023200  -27.900000
0.028500  -27.900000
0.031500  -27.700000
0.028500  -27.900000
0.014200  -27.500000
-0.001500  -27.700000
-0.015800  -27.500000
-0.029300  -27.400000
-0.033000  -27.600000
-0.027000  -27.100000
-0.020300  -27.400000
-0.012800  -26.900000
-0.004600  -26.900000
0.000700  -26.900000
0.003000  -26.800000
0.010500  -26.400000
0.017200  -26.700000
0.017200  -26.300000
0.005200  -26.400000
-0.011300  -26.300000
-0.020300  -26.100000
-0.021800  -26.000000
-0.023300  -25.700000
-0.020300  -25.900000
-0.016500  -25.700000
-0.006800  -25.600000
0.005200  -25.600000
0.012700  -25.400000
0.018700  -25.400000
0.015700  -25.100000
0.013500  -25.100000
0.010500  -25.200000
0.005200  -24.900000
0.000700  -24.800000
-0.002300  -24.800000
-0.000800  -24.300000
0.000700  -24.500000
-0.003000  -24.200000
-0.010500  -24.500000
-0.015800  -24.200000
-0.019500  -24.200000
-0.025600  -24.100000
-0.029300  -23.900000
-0.021000  -23.900000
-0.012800  -23.700000
-0.008300  -23.500000
0.000700  -23.600000
0.012000  -23.500000
0.015700  -23.100000
0.006700  -23.400000
-0.008300  -23.100000
-0.019500  -23.000000
-0.020300  -23.000000
-0.009800  -22.700000
-0.003000  -23.000000
-0.000800  -22.500000
0.005200  -22.700000
0.018000  -22.200000
0.027000  -22.300000
0.035200  -22.300000
0.047200  -22.200000
0.039000  -22.100000
0.026200  -22.100000
0.017200  -22.000000
-0.009100  -21.800000
-0.032300  -22.000000
-0.048800  -21.600000
-0.054000  -21.900000
-0.036800  -21.400000
-0.001500  -21.600000
0.022500  -21.600000
0.019500  -21.300000
0.019500  -21.500000
0.023200  -21.000000
0.041200  -21.500000
0.069000  -20.900000
0.065200  -21.100000
0.038200  -21.000000
0.019500  -20.800000
-0.001500  -20.700000
-0.015800  -20.700000
-0.012800  -20.500000
-0.007500  -20.300000
-0.009100  -20.400000
-0.024000  -20.000000
-0.045800  -20.400000
-0.053300  -19.900000
-0.045000  -20.100000
-0.035300  -19.900000
-0.025600  -19.800000
-0.018100  -19.900000
-0.011300  -19.500000
-0.021000  -19.600000
-0.030000  -19.300000
-0.020300  -19.200000
-0.009100  -19.300000
0.001500  -19.200000
-0.010500  -18.800000
-0.014300  -19.000000
-0.007500  -18.600000
-0.013500  -18.500000
-0.010500  -18.300000
-0.027800  -18.200000
-0.035300  -18.200000
-0.007500  -17.900000
0.022500  -18.100000
0.049500  -17.600000
0.080200  -17.800000
0.104200  -17.600000
0.089200  -17.300000
0.040500  -17.300000
0.006700  -17.200000
-0.013500  -16.700000
-0.024800  -16.800000
-0.017300  -16.200000
-0.012800  -16.500000
0.001500  -16.100000
0.014200  -16.000000
0.039000  -15.800000
0.065200  -15.600000
0.048700  -15.600000
0.007500  -15.300000
-0.032300  -15.300000
-0.045800  -15.200000
-0.059300  -15.000000
-0.064500  -14.700000
-0.060000  -14.700000
-0.052500  -14.400000
-0.025600  -14.500000
-0.003000  -14.000000
0.020200  -14.100000
0.030700  -13.800000
0.029200  -13.700000
0.019500  -13.700000
0.007500  -13.100000
-0.006000  -13.300000
-0.029300  -12.800000
-0.035300  -13.000000
-0.041300  -12.600000
-0.041300  -12.400000
-0.039000  -12.500000
-0.050300  -12.200000
-0.055500  -12.000000
-0.064500  -11.800000
-0.053300  -12.000000
-0.013500  -11.500000
0.024700  -11.700000
0.052500  -11.300000
0.066000  -11.300000
0.046500  -11.000000
0.025500  -10.900000
0.034500  -10.800000
0.024700  -10.600000
0.030700  -10.600000
0.086200  -10.300000
0.123000  -10.500000
0.123000  -10.300000
0.089200  -10.200000
0.030700  -10.200000
-0.020300  -10.200000
-0.045800  -9.900000
-0.054800  -10.000000
-0.065300  -9.600000
-0.061500  -9.700000
-0.047300  -9.800000
-0.029300  -9.400000
-0.023300  -9.700000
-0.018100  -9.300000
-0.012800  -9.500000
-0.022500  -9.200000
-0.024000  -9.500000
-0.021000  -9.400000
-0.024800  -9.300000
-0.038300  -9.300000
-0.034600  -9.200000
-0.012800  -8.900000
0.002200  -9.100000
0.018000  -9.000000
0.021700  -8.900000
0.018000  -8.900000
0.003000  -8.900000
-0.000800  -8.900000
0.007500  -8.600000
-0.006800  -8.900000
-0.014300  -8.600000
-0.009100  -8.600000
-0.005300  -8.600000
-0.006800  -8.500000
-0.003800  -8.600000
0.004500  -8.500000
0.005200  -8.400000
0.010500  -8.100000
0.015700  -8.400000
0.010500  -8.000000
0.006700  -8.300000
0.003700  -7.800000
0.003000  -8.200000
-0.001500  -7.800000
-0.003800  -8.000000
-0.002300  -7.700000
-0.000800  -7.500000
-0.005300  -7.700000
-0.008300  -7.400000
-0.012800  -7.400000
-0.024000  -7.200000
-0.020300  -7.400000
-0.014300  -7.100000
-0.003000  -7.200000
0.020200  -7.000000
0.042000  -7.000000
0.053200  -6.800000
0.044200  -6.700000
0.020200  -7.000000
-0.003000  -6.600000
-0.012000  -6.900000
-0.003000  -6.600000
0.009000  -7.000000
0.018000  -6.700000
0.016500  -7.000000
0.012000  -6.800000
0.018000  -6.900000
0.021700  -6.800000
0.019500  -7.100000
0.003700  -7.100000
-0.019500  -7.000000
-0.024000  -7.500000
-0.027800  -7.100000
-0.033000  -7.600000
-0.020300  -7.300000
-0.012800  -7.700000
-0.016500  -7.700000
-0.027800  -7.900000
-0.042000  -7.900000
-0.038300  -7.700000
-0.024000  -8.100000
-0.010500  -7.800000
-0.009100  -8.000000
-0.014300  -7.900000
-0.000800  -7.900000
0.015700  -8.000000
0.036700  -7.900000
0.064500  -7.900000
0.068200  -7.800000
0.057700  -7.800000
0.053200  -7.500000
0.047200  -7.800000
0.018000  -7.300000
-0.012000  -7.400000
-0.020300  -6.800000
-0.027000  -7.100000
-0.027800  -6.900000
-0.020300  -6.800000
-0.021800  -6.300000
-0.020300  -6.400000
-0.020300  -6.200000
-0.021000  -6.300000
-0.021000  -6.000000
-0.020300  -5.800000
-0.017300  -5.800000
-0.017300  -5.400000
-0.012800  -5.400000
-0.010500  -5.200000
-0.009800  -5.100000
-0.009800  -5.100000
-0.007500  -4.500000
-0.006800  -4.800000
-0.005300  -4.300000
-0.003800  -4.500000
-0.003800  -4.300000
-0.004600  -4.100000
-0.004600  -3.900000
-0.002300  -4.200000
0.000000  -3.600000
0.002200  -3.800000
0.003000  -3.400000
0.003700  -3.400000
0.003700  -3.500000
0.005200  -3.300000
0.006000  -3.500000
0.005200  -3.100000
0.004500  -3.200000
0.006000  -3.200000
0.005200  -3.100000
0.005200  -3.000000
0.006000  -3.200000
0.006000  -3.100000
0.006700  -3.200000
0.006000  -3.200000
0.004500  -3.000000
0.004500  -3.200000
0.005200  -3.000000
0.005200  -3.500000
0.004500  -3.100000
0.003000  -3.400000
0.001500  -3.200000
0.000000  -3.200000
0.000700  -3.300000
0.001500  -3.200000
0.002200  -3.600000
0.003000  -3.400000
0.002200  -3.500000
0.001500  -3.400000
0.000700  -3.600000
0.000700  -3.500000
-0.001500  -3.700000
-0.001500  -3.400000
-0.000800  -3.500000
-0.001500  -3.800000
-0.001500  -3.400000
-0.001500  -3.700000
-0.002300  -3.200000
-0.002300  -3.600000
-0.003000  -3.200000
-0.003000  -3.400000
-0.002300  -3.400000
-0.004600  -3.200000
-0.012000  -3.100000
-0.018100  -3.100000
-0.019500  -3.100000
-0.020300  -2.700000
-0.010500  -3.100000
0.001500  -2.700000
0.012700  -3.000000
0.021700  -2.500000
0.022500  -2.700000
0.023200  -2.500000
0.016500  -2.300000
0.005200  -2.400000
-0.003000  -2.100000
-0.012000  -2.200000
-0.018100  -2.000000
-0.018100  -2.200000
-0.012000  -2.100000
-0.009100  -1.800000
-0.010500  -1.800000
-0.006800  -1.900000
-0.000800  -1.900000
-0.000800  -1.700000
0.000000  -1.800000
-0.003000  -1.600000
-0.006800  -1.800000
-0.005300  -1.400000
-0.005300  -1.800000
-0.007500  -1.400000
-0.009100  -1.600000
-0.006800  -1.500000
-0.004600  -1.300000
-0.003800  -1.300000
-0.005300  -1.200000
-0.006000  -1.400000
-0.003000  -1.400000
-0.003000  -1.300000
-0.003000  -1.400000
-0.001500  -1.400000
-0.001500  -1.200000
-0.000800  -1.500000
-0.001500  -1.200000
-0.001500  -1.300000
-0.008300  -1.300000
-0.021800  -1.100000
-0.025600  -1.300000
-0.021000  -1.000000
-0.014300  -1.200000
-0.001500  -1.000000
0.006000  -1.000000
0.009000  -0.900000
0.015700  -0.900000
0.018700  -0.700000
0.026200  -1.000000
0.035200  -0.600000
0.037500  -0.900000
0.038200  -0.700000
0.030000  -0.700000
0.018700  -0.800000
0.012700  -0.500000
0.004500  -0.700000
-0.005300  -0.500000
-0.009100  -0.700000
-0.010500  -0.600000
-0.012800  -0.500000
-0.009100  -0.500000
-0.005300  -0.400000
-0.005300  -0.200000
-0.003000  -0.500000
-0.001500  -0.200000
0.000700  -0.300000
0.002200  -0.300000
0.001500  0.000000
-0.001500  -0.300000
-0.005300  0.300000
-0.005300  -0.200000
-0.006800  0.300000
-0.006800  0.000000
-0.005300  0.200000
-0.005300  0.200000
-0.006000  0.200000
-0.004600  0.300000
-0.002300  0.300000
-0.003000  0.400000
-0.003000  0.100000
-0.003000  0.500000
-0.002300  0.300000
-0.003800  0.600000
-0.003000  0.200000
-0.001500  0.800000
-0.000800  0.600000
-0.001500  0.500000
-0.001500  0.700000
-0.001500  0.500000
-0.003000  0.900000
-0.000800  0.800000
0.000700  0.900000
-0.000800  0.900000
-0.000800  0.900000
0.000000  0.900000
0.001500  1.100000
-0.001500  1.100000
-0.008300  1.000000
-0.019500  1.300000
-0.024000  1.000000
-0.020300  1.300000
-0.015000  1.200000
-0.004600  1.500000
0.004500  1.300000
0.013500  1.500000
0.019500  1.500000
0.016500  1.400000
0.014200  1.500000
0.009700  1.700000
0.002200  1.700000
-0.000800  1.600000
-0.001500  1.900000
0.000700  1.700000
0.001500  1.800000
-0.006000  1.800000
-0.009100  1.800000
-0.007500  2.000000
-0.008300  1.800000
-0.010500  1.900000
-0.009800  1.800000
-0.006000  2.200000
-0.005300  1.900000
-0.004600  2.000000
-0.004600  2.000000
0.000000  2.100000
0.006000  2.200000
0.009000  2.400000
0.013500  1.800000
0.014200  2.400000
0.015000  2.100000
0.012000  2.200000
0.003000  2.300000
0.000000  2.100000
-0.003000  2.400000
-0.006800  2.100000
-0.006800  2.300000
-0.007500  2.400000
-0.007500  2.400000
-0.008300  2.400000
-0.005300  2.200000
-0.005300  2.400000
-0.005300  2.500000
-0.006800  2.500000
-0.006800  2.200000
-0.006800  2.700000
-0.005300  2.300000
-0.001500  2.600000
-0.000800  2.300000
-0.001500  2.500000
-0.002300  2.400000
-0.003000  2.400000
-0.000800  2.600000
0.001500  2.400000
0.003000  2.700000
0.003000  2.500000
0.001500  2.600000
0.001500  2.500000
0.000700  2.600000
0.000000  2.400000
0.001500  2.700000
0.003000  2.700000
0.003700  2.600000
0.003700  2.700000
0.001500  2.600000
-0.000800  3.000000
-0.003000  2.500000
-0.004600  3.000000
-0.009800  2.600000
-0.018800  2.700000
-0.016500  2.700000
-0.012000  2.800000
-0.005300  2.700000
0.003000  2.700000
0.012000  2.700000
0.018700  2.700000
0.021700  3.000000
0.019500  2.700000
0.018000  3.000000
0.019500  2.700000
0.009000  3.000000
-0.003800  2.900000
-0.012800  2.900000
-0.022500  3.100000
-0.021800  2.700000
-0.016500  3.100000
-0.009100  2.900000
0.000700  3.000000
0.006700  3.000000
0.014200  3.000000
0.015000  2.900000
0.010500  3.100000
0.006700  3.000000
0.003700  3.100000
-0.003000  3.200000
-0.018100  2.900000
-0.029300  3.200000
-0.024000  2.800000
-0.015800  3.200000
-0.011300  2.900000
-0.001500  3.100000
0.005200  2.900000
0.014200  2.900000
0.020200  3.000000
0.016500  3.000000
0.014200  3.000000
0.009000  3.100000
0.003700  3.000000
-0.000800  2.800000
-0.009100  3.100000
-0.012000  2.800000
-0.009800  3.100000
-0.008300  2.900000
-0.005300  2.900000
-0.006800  3.100000
-0.006000  2.800000
-0.005300  3.200000
-0.005300  2.700000
-0.002300  3.000000
-0.003000  3.200000
-0.001500  3.000000
-0.003000  2.800000
-0.003800  3.100000
-0.004600  2.700000
-0.004600  3.300000
-0.000800  2.800000
0.005200  3.000000
0.005200  3.000000
0.004500  3.000000
0.006700  3.200000
0.005200  3.000000
0.006700  3.200000
0.008200  3.000000
0.004500  3.100000
0.001500  3.100000
-0.000800  3.000000
-0.002300  3.100000
-0.001500  3.100000
-0.003000  3.000000
-0.003000  3.100000
-0.002300  3.300000
-0.005300  3.100000
-0.004600  3.400000
-0.002300  3.100000
-0.001500  3.600000
-0.002300  3.000000
-0.003800  3.400000
-0.004600  3.200000
-0.004600  3.400000
-0.003800  3.300000
-0.003800  3.000000
-0.002300  3.200000
-0.001500  3.200000
0.000700  3.300000
0.002200  3.300000
0.000700  3.500000
-0.000800  3.100000
-0.000800  3.600000
0.000000  3.300000
0.000700  3.600000
0.000700  3.300000
0.000000  3.600000
-0.002300  3.600000
-0.003000  3.300000
-0.000800  3.700000
-0.000800  3.300000
-0.001500  3.600000
-0.000800  3.600000
0.000700  3.400000
0.001500  3.600000
0.000700  3.700000
0.000000  3.500000
-0.001500  3.700000
-0.003000  3.600000
-0.003000  3.600000
-0.004600  3.900000
-0.004600  3.600000
-0.003800  3.900000
-0.004600  3.600000
-0.001500  4.000000
-0.000800  3.600000
-0.001500  3.900000
-0.001500  3.900000
0.000700  3.800000
0.000700  3.800000
-0.002300  3.900000
-0.003000  3.600000
-0.003000  4.000000
-0.004600  3.700000
-0.004600  4.000000
-0.004600  4.000000
-0.004600  3.800000
-0.004600  4.100000
-0.004600  3.700000
-0.003800  4.000000
0.000700  3.900000
0.004500  3.900000
0.002200  4.000000
0.000000  3.900000
-0.001500  4.000000
-0.001500  4.000000
0.000000  4.000000
-0.000800  4.000000
-0.003800  4.000000
-0.005300  3.800000
-0.005300  4.200000
-0.000800  3.800000
0.000700  4.300000
-0.000800  3.900000
0.000000  4.100000
0.003000  3.900000
0.005200  4.100000
0.004500  4.100000
0.003000  4.000000
-0.000800  4.100000
-0.001500  4.000000
-0.002300  4.000000
-0.005300  4.100000
-0.012000  4.000000
-0.020300  4.000000
-0.016500  4.100000
-0.006800  4.000000
0.001500  4.200000
0.016500  4.100000
0.021700  4.100000
0.024700  4.400000
0.024000  4.100000
0.017200  4.300000
0.010500  4.000000
0.003000  4.300000
-0.000800  4.300000
-0.009800  4.300000
-0.013500  4.100000
-0.009100  4.300000
-0.006800  4.400000
-0.003800  4.100000
-0.001500  4.500000
0.000000  4.100000
0.001500  4.500000
0.001500  4.100000
0.000700  4.500000
0.000700  4.200000
0.000000  4.400000
-0.002300  4.300000
-0.002300  4.300000
-0.003000  4.500000
-0.003800  4.400000
-0.003000  4.300000
-0.003800  4.500000
-0.003000  4.400000
-0.003000  4.400000
-0.002300  4.500000
-0.001500  4.200000
-0.003000  4.500000
-0.001500  4.500000
-0.002300  4.500000
-0.000800  4.500000
-0.001500  4.400000
-0.003000  4.600000
-0.002300  4.300000
-0.001500  4.700000
0.000700  4.300000
0.000700  4.500000
-0.000800  4.600000
-0.000800  4.500000
-0.001500  4.500000
-0.003000  4.800000
-0.002300  4.500000
-0.003800  4.600000
-0.003800  4.600000
0.000000  4.500000
-0.001500  4.700000
-0.003000  4.500000
-0.003000  4.800000
-0.002300  4.600000
-0.003000  4.700000
-0.005300  4.700000
-0.006800  4.600000
-0.007500  4.700000
-0.006800  4.700000
-0.004600  4.800000
-0.001500  4.800000
0.003000  4.700000
0.008200  4.700000
0.012000  4.900000
0.010500  4.600000
0.006000  4.900000
0.002200  4.700000
0.000700  4.800000
-0.000800  4.600000
-0.001500  4.900000
-0.004600  4.800000
-0.005300  4.900000
-0.004600  5.000000
-0.002300  4.900000
-0.003000  4.900000
-0.007500  4.900000
-0.012800  5.000000
-0.012800  4.700000
-0.009800  5.100000
-0.009100  4.700000
-0.003800  5.100000
0.003700  4.900000
0.012000  5.000000
0.016500  5.000000
0.014200  4.900000
0.012000  5.100000
0.006700  4.900000
0.000700  5.200000
-0.003000  4.900000
-0.006000  5.000000
-0.008300  5.000000
-0.005300  5.100000
0.000000  5.000000
0.000000  5.200000
-0.000800  5.200000
0.003000  4.900000
0.003000  5.200000
0.004500  5.000000
0.003700  5.200000
0.000700  4.900000
-0.002300  5.200000
-0.006000  4.900000
-0.005300  5.300000
-0.003000  5.000000
-0.003000  5.000000
-0.001500  5.200000
-0.000800  5.100000
-0.000800  5.100000
-0.001500  5.300000
-0.003000  5.300000
-0.004600  5.100000
-0.004600  5.200000
-0.001500  5.000000
-0.000800  5.300000
-0.000800  5.300000
-0.001500  5.300000
-0.000800  5.300000
-0.002300  5.200000
-0.003000  5.400000
-0.002300  5.100000
-0.002300  5.500000
-0.000800  5.200000
0.000700  5.300000
0.000000  5.300000
-0.000800  5.200000
-0.000800  5.100000
-0.003000  5.600000
-0.002300  5.000000
-0.001500  5.500000
-0.003000  5.200000
-0.003000  5.400000
-0.003000  5.400000
-0.001500  5.300000
-0.000800  5.600000
-0.000800  5.300000
-0.001500  5.300000
-0.001500  5.300000
-0.002300  5.400000
-0.003000  5.300000
-0.001500  5.400000
-0.001500  5.500000
-0.001500  5.600000
-0.001500  5.300000
-0.000800  5.400000
0.001500  5.600000
0.002200  5.300000
0.000700  5.700000
0.001500  5.300000
0.000000  5.800000
-0.005300  5.300000
-0.005300  5.700000
-0.005300  5.400000
-0.003000  5.400000
0.000000  5.700000
0.000000  5.500000
0.000700  5.600000
0.000700  5.600000
0.000700  5.800000
0.000700  5.400000
0.000700  5.800000
-0.001500  5.500000
-0.001500  5.800000
0.001500  5.400000
0.001500  5.600000
0.000000  5.600000
-0.001500  5.600000
-0.001500  5.700000
0.000700  5.500000
0.001500  5.800000
0.000700  5.600000
-0.003000  5.600000
-0.003000  5.800000
-0.003000  5.800000
-0.004600  5.600000
-0.004600  5.600000
-0.001500  5.800000
0.000700  5.600000
0.000700  5.800000
0.002200  5.500000
0.001500  5.800000
0.001500  5.600000
0.001500  5.800000
0.001500  5.500000
0.000700  5.800000
0.000700  5.700000
0.000000  5.600000
-0.003000  5.900000
-0.003800  5.700000
-0.003000  5.600000
0.000700  5.800000
-0.002300  5.900000
-0.005300  5.700000
-0.004600  5.800000
-0.003800  5.600000
-0.000800  5.900000
-0.000800  5.700000
-0.002300  5.800000
0.000000  5.800000
0.001500  5.600000
0.003000  6.000000
0.001500  5.600000
-0.001500  5.800000
-0.004600  5.800000
-0.000800  5.900000
0.001500  5.800000
0.000700  5.900000
0.000700  5.600000
0.001500  6.200000
0.002200  5.700000
0.002200  6.100000
0.003700  5.800000
0.003000  5.800000
0.001500  6.000000
0.000700  5.800000
0.000700  6.000000
-0.001500  5.800000
-0.004600  5.800000
-0.005300  5.800000
-0.006800  6.000000
-0.004600  5.900000
-0.005300  6.100000
-0.005300  5.700000
-0.003800  5.900000
-0.003800  5.900000
-0.005300  6.000000
-0.002300  6.000000
-0.001500  5.800000
-0.003800  6.000000
-0.003800  5.800000
-0.006000  6.200000
-0.005300  5.800000
-0.003000  6.100000
-0.000800  6.100000
0.000000  6.000000
0.001500  6.000000
0.002200  5.900000
-0.001500  6.000000
-0.008300  5.900000
-0.013500  6.100000
-0.012000  5.800000
-0.010500  6.200000
-0.003800  5.900000
0.011200  6.100000
0.018700  5.900000
0.019500  6.000000
0.018700  6.000000
0.016500  6.000000
0.009000  6.200000
0.001500  5.800000
-0.003000  5.900000
-0.008300  6.100000
-0.011300  6.000000
-0.012800  6.100000
-0.010500  6.100000
-0.005300  5.900000
-0.003800  6.200000
-0.002300  6.000000
-0.001500  6.300000
0.000000  6.200000
0.001500  5.900000
0.002200  6.300000
0.006700  5.900000
0.010500  6.300000
0.009000  5.900000
0.003000  6.200000
-0.001500  6.200000
-0.003000  6.200000
-0.004600  6.100000
-0.005300  6.200000
-0.003800  6.100000
-0.003800  6.300000
-0.002300  6.000000
-0.001500  6.100000
-0.001500  6.100000
0.000700  6.100000
-0.000800  6.200000
-0.001500  6.000000
-0.001500  6.200000
-0.000800  6.100000
-0.003000  6.200000
-0.005300  6.200000
-0.004600  6.200000
-0.003000  6.100000
-0.003800  6.100000
-0.004600  5.900000
-0.000800  6.200000
0.000700  6.100000
0.000700  6.100000
0.000000  6.500000
-0.000800  5.900000
0.002200  6.400000
0.001500  6.200000
0.000000  6.300000
-0.001500  6.100000
-0.002300  6.200000
-0.003800  6.300000
-0.004600  6.100000
-0.005300  6.300000
-0.006800  6.200000
-0.005300  6.200000
-0.004600  6.100000
0.000000  6.300000
0.005200  6.000000
0.006700  6.300000
0.004500  6.100000
0.001500  6.300000
0.002200  6.300000
-0.001500  6.100000
-0.002300  6.400000
0.000700  5.900000
0.000700  6.400000
0.001500  6.000000
0.004500  6.200000
0.004500  6.100000
0.003000  6.300000
0.000700  6.100000
-0.002300  6.100000
-0.003000  6.200000
-0.001500  6.000000
-0.003800  6.300000
-0.003800  6.000000
-0.003000  6.300000
-0.005300  6.100000
-0.003000  6.300000
-0.000800  6.100000
0.000700  6.200000
0.000700  6.200000
0.000000  6.100000
0.000000  6.300000
-0.000800  6.100000
-0.003000  6.200000
-0.002300  6.000000
0.001500  6.200000
0.003700  5.900000
0.000700  6.200000
-0.001500  6.200000
-0.002300  6.200000
-0.001500  6.100000
-0.001500  5.900000
-0.003800  6.300000
-0.003000  5.900000
-0.002300  6.200000
-0.005300  5.900000
-0.010500  6.200000
-0.016500  6.000000
-0.017300  6.100000
-0.012000  6.200000
-0.006800  6.100000
0.000700  6.100000
0.008200  6.200000
0.016500  6.200000
0.021700  6.000000
0.021700  6.300000
0.016500  5.900000
0.008200  6.300000
0.003000  6.000000
-0.002300  6.000000
-0.006800  6.200000
-0.007500  6.000000
-0.003800  6.300000
-0.004600  6.200000
-0.003800  6.100000
-0.005300  5.900000
-0.009100  6.100000
-0.007500  5.800000
-0.007500  6.200000
-0.006000  5.900000
-0.005300  6.300000
-0.006800  5.900000
-0.004600  6.200000
-0.003000  6.200000
-0.001500  6.100000
-0.001500  6.100000
-0.000800  6.000000
-0.000800  6.100000
-0.000800  5.900000
-0.003000  6.000000
-0.002300  6.100000
0.000700  6.000000
0.000700  6.000000
0.000700  6.200000
-0.001500  5.900000
-0.003000  6.200000
-0.005300  5.900000
-0.006000  6.300000
-0.005300  6.000000
-0.001500  6.200000
0.001500  6.100000
0.002200  5.900000
0.003700  6.300000
0.003700  5.900000
0.003000  6.300000
0.000700  6.100000
-0.001500  6.000000
-0.000800  6.000000
0.001500  6.200000
0.000700  5.900000
0.000700  6.200000
0.001500  6.000000
0.001500  5.900000
0.000700  6.200000
-0.003800  5.900000
-0.018100  6.200000
-0.030000  5.700000
-0.023300  6.100000
-0.014300  5.800000
0.001500  6.200000
0.018000  5.900000
0.029200  6.100000
0.036000  6.200000
0.034500  6.100000
0.033700  6.100000
0.023200  6.100000
0.012000  5.900000
0.000700  6.100000
-0.015000  6.000000
-0.020300  5.900000
-0.025600  6.100000
-0.024800  5.800000
-0.021000  6.200000
-0.018100  5.900000
-0.016500  5.900000
-0.009800  6.000000
-0.000800  5.900000
0.007500  6.000000
0.018000  6.000000
0.019500  5.900000
0.018700  6.100000
0.014200  5.900000
0.010500  5.800000
0.010500  6.200000
0.005200  5.800000
0.001500  6.200000
-0.003000  5.800000
-0.006800  6.100000
-0.008300  5.800000
-0.010500  5.900000
-0.010500  5.900000
-0.007500  5.900000
-0.005300  6.000000
-0.005300  5.900000
-0.006000  5.900000
-0.004600  5.900000
-0.004600  5.800000
-0.004600  5.800000
-0.003800  6.200000
-0.006800  5.600000
-0.009100  6.000000
-0.006800  5.700000
-0.005300  6.000000
-0.006000  5.900000
-0.003000  5.800000
-0.001500  6.000000
-0.001500  5.800000
-0.000800  6.100000
-0.003000  5.800000
-0.002300  5.900000
0.001500  5.800000
0.000700  5.900000
0.000700  5.800000
0.002200  6.200000
0.001500  5.800000
0.001500  5.700000
-0.000800  5.900000
-0.003000  5.800000
-0.000800  6.100000
-0.003000  5.700000
-0.006800  6.100000
-0.009100  5.700000
-0.008300  5.900000
-0.006000  5.800000
-0.001500  5.800000
0.003000  5.800000
0.004500  5.800000
0.006000  5.700000
0.006700  6.000000
0.007500  5.800000
0.009000  5.900000
0.012700  5.900000
0.012700  5.800000
0.009700  5.900000
0.004500  5.600000
-0.001500  5.900000
-0.003000  5.600000
-0.008300  5.900000
-0.016500  5.800000
-0.020300  5.800000
-0.024000  5.900000
-0.026300  5.800000
-0.015800  5.800000
-0.005300  5.900000
0.005200  5.800000
0.024700  5.800000
0.033700  5.900000
0.034500  5.600000
0.030700  6.000000
0.021700  5.500000
0.012700  5.900000
0.003000  5.500000
-0.003000  5.700000
-0.009100  5.700000
-0.018100  5.600000
-0.024800  5.800000
-0.024000  5.500000
-0.018100  5.700000
-0.012000  5.800000
-0.003000  5.700000
0.009000  5.600000
0.019500  6.100000
0.020200  5.500000
0.017200  5.900000
0.009700  5.600000
0.000700  5.700000
-0.001500  5.700000
-0.008300  5.600000
-0.013500  5.600000
-0.012800  5.300000
-0.010500  5.800000
-0.009800  5.300000
-0.009800  5.600000
-0.006800  5.600000
-0.006800  5.600000
-0.006800  5.500000
-0.006800  5.600000
-0.005300  5.600000
-0.004600  5.500000
-0.003000  5.600000
-0.003000  5.400000
-0.001500  5.800000
0.000700  5.400000
0.001500  5.700000
0.003000  5.400000
-0.000800  5.600000
-0.001500  5.400000
-0.001500  5.500000
-0.003000  5.600000
-0.004600  5.400000
-0.003800  5.400000
-0.003000  5.500000
-0.003000  5.400000
-0.001500  5.400000
-0.003000  5.500000
-0.003000  5.200000
-0.002300  5.500000
0.000000  5.300000
0.002200  5.400000
0.000700  5.600000
0.000700  5.300000
-0.001500  5.400000
-0.003800  5.300000
-0.004600  5.600000
-0.003800  5.300000
-0.003000  5.300000
-0.001500  5.400000
-0.002300  5.300000
-0.000800  5.300000
-0.000800  5.600000
0.000000  5.200000
0.001500  5.500000
0.004500  5.300000
0.003000  5.300000
0.003000  5.300000
0.001500  5.200000
0.000000  5.300000
0.000700  5.200000
-0.001500  5.300000
-0.004600  5.300000
-0.008300  5.200000
-0.009100  5.300000
-0.009100  5.300000
-0.008300  5.300000
-0.003800  5.300000
-0.000800  5.200000
0.000700  5.300000
0.004500  5.200000
0.007500  5.100000
0.008200  5.300000
0.009000  5.000000
0.010500  5.500000
0.006700  5.000000
0.002200  5.300000
-0.002300  4.900000
-0.004600  5.100000
-0.006000  5.200000
-0.006000  5.000000
-0.003800  5.000000
-0.003800  5.000000
-0.002300  5.100000
-0.000800  4.900000
0.000700  5.200000
0.001500  4.800000
0.001500  5.300000
0.000700  5.000000
0.000700  4.900000
0.000700  4.900000
-0.000800  4.900000
-0.003000  5.000000
-0.003800  4.700000
-0.002300  5.000000
-0.000800  4.900000
0.000700  5.000000
0.001500  4.900000
0.001500  4.900000
0.001500  4.700000
-0.000800  4.900000
-0.000800  4.700000
0.002200  4.900000
0.003000  4.800000
0.004500  4.700000
0.003700  5.000000
0.002200  4.500000
-0.000800  4.700000
-0.002300  4.500000
-0.001500  4.900000
-0.003000  4.300000
-0.005300  4.500000
-0.003800  4.600000
-0.003800  4.500000
-0.004600  4.700000
-0.008300  4.600000
-0.009100  4.500000
-0.004600  4.500000
0.000000  4.500000
-0.001500  4.400000
-0.003800  4.500000
0.000700  4.300000
0.004500  4.400000
0.001500  4.300000
-0.003800  4.100000
-0.005300  4.400000
-0.006000  4.100000
-0.006800  4.300000
-0.007500  4.100000
-0.001500  4.100000
0.009000  4.100000
0.009000  4.000000
0.003000  3.900000
-0.000800  4.100000
-0.004600  3.700000
-0.004600  4.100000
-0.003000  3.700000
-0.001500  4.000000
0.001500  3.900000
0.005200  3.700000
0.003000  3.900000
-0.000800  3.700000
-0.001500  3.900000
-0.006800  3.800000
-0.007500  3.600000
-0.003000  3.700000
0.003700  3.700000
0.007500  3.300000
0.006000  3.700000
0.000700  3.400000
-0.005300  3.600000
-0.009100  3.300000
-0.006800  3.400000
0.000700  3.500000
0.002200  3.200000
0.003700  3.300000
0.003000  3.100000
0.000700  3.300000
0.000700  3.000000
-0.004600  3.000000
-0.008300  3.100000
-0.008300  3.000000
-0.009100  2.900000
-0.005300  3.000000
-0.001500  2.800000
-0.000800  2.700000
-0.003000  2.700000
-0.004600  2.500000
-0.003000  2.800000
-0.001500  2.400000
-0.000800  2.700000
0.000700  2.200000
0.008200  2.300000
0.009700  2.200000
0.002200  2.300000
0.000700  2.200000
0.000700  2.000000
-0.001500  2.000000
0.000000  2.000000
-0.001500  1.900000
-0.010500  1.700000
-0.012000  1.800000
-0.008300  1.400000
-0.004600  1.600000
0.000000  1.300000
0.003000  1.500000
0.003700  1.200000
-0.000800  1.200000
-0.003000  1.200000
-0.003000  0.900000
-0.004600  1.200000
-0.001500  0.900000
0.002200  0.700000
0.003000  0.600000
0.002200  0.500000
0.000700  0.300000
-0.000800  0.600000
-0.000800  0.200000
-0.003000  0.600000
-0.000800  0.000000
-0.000800  0.300000
-0.003000  0.000000
-0.000800  0.000000
0.000700  -0.100000
0.003000  -0.200000
0.000000  0.000000
-0.005300  -0.400000
-0.004600  -0.500000
-0.001500  -0.500000
-0.001500  -0.700000
-0.001500  -0.700000
0.002200  -0.500000
0.006000  -1.000000
0.002200  -0.900000
0.000000  -1.300000
-0.002300  -1.200000
-0.004600  -1.300000
-0.004600  -1.400000
-0.000800  -1.100000
-0.001500  -1.700000
-0.003000  -1.300000
0.000700  -1.900000
0.000700  -1.600000
0.001500  -1.800000
0.001500  -1.900000
0.000700  -2.000000
0.002200  -2.200000
0.001500  -2.300000
-0.003800  -2.300000
-0.004600  -2.400000
-0.002300  -2.500000
-0.000800  -2.600000
0.000000  -2.900000
0.000700  -2.600000
-0.001500  -3.200000
-0.003000  -2.800000
-0.000800  -3.400000
0.001500  -3.100000
0.000700  -3.400000
0.001500  -3.400000
0.001500  -3.600000
-0.000800  -3.700000
-0.000800  -4.100000
-0.001500  -3.900000
-0.001500  -4.200000
-0.001500  -4.200000
-0.005300  -4.400000
-0.005300  -4.600000
-0.003000  -4.400000
0.001500  -4.900000
0.002200  -4.800000
-0.001500  -5.000000
-0.001500  -5.200000
0.000700  -5.100000
0.001500  -5.500000
0.001500  -5.500000
0.000700  -5.700000
0.000700  -5.700000
0.000700  -5.900000
0.001500  -6.100000
0.000700  -6.300000
0.000000  -6.200000
0.001500  -6.800000
-0.001500  -6.500000
-0.003000  -7.000000
-0.001500  -6.700000
-0.001500  -7.200000
-0.004600  -7.100000
-0.006800  -7.200000
-0.007500  -7.700000
-0.006800  -7.600000
-0.005300  -7.600000
-0.005300  -7.900000
-0.003800  -7.900000
-0.003000  -7.900000
-0.002300  -8.600000
-0.001500  -8.300000
-0.002300  -8.700000
-0.002300  -8.600000
-0.000800  -8.900000
0.001500  -9.000000
0.001500  -9.000000
0.003000  -9.400000
0.004500  -9.000000
0.003700  -9.700000
0.004500  -9.600000
0.003000  -9.900000
0.000700  -10.000000
0.001500  -10.000000
0.000000  -10.200000
-0.002300  -10.500000
-0.003000  -10.500000
-0.002300  -10.600000
-0.000800  -11.000000
0.000000  -10.800000
0.000000  -11.400000
-0.001500  -11.000000
-0.001500  -11.600000
-0.003000  -11.500000
-0.000800  -11.800000
-0.000800  -11.800000
-0.001500  -12.000000
0.000700  -12.300000
0.001500  -12.200000
-0.001500  -12.600000
-0.004600  -12.600000
-0.002300  -12.700000
-0.004600  -12.900000
-0.003000  -13.200000
-0.004600  -13.100000
-0.006000  -13.500000
-0.005300  -13.500000
-0.006800  -13.700000
-0.006800  -13.800000
-0.006800  -13.800000
-0.006800  -14.300000
-0.006000  -14.000000
-0.003000  -14.400000
-0.003000  -14.400000
-0.003000  -14.600000
-0.002300  -14.700000
-0.003800  -14.900000
-0.000800  -14.900000
0.000700  -15.300000
-0.000800  -15.200000
0.000700  -15.600000
0.001500  -15.600000
0.000700  -15.800000
-0.000800  -16.100000
-0.000800  -15.900000
-0.000800  -16.400000
-0.000800  -16.200000
-0.000800  -16.600000
-0.002300  -16.700000
-0.003000  -16.700000
-0.001500  -17.000000
-0.002300  -17.100000
0.000700  -17.200000
0.001500  -17.500000
0.000700  -17.600000
0.001500  -17.600000
0.000700  -18.100000
0.000700  -18.000000
-0.000800  -18.500000
-0.002300  -18.200000
-0.001500  -18.700000
-0.000800  -18.700000
-0.001500  -18.900000
-0.003000  -19.000000
-0.003000  -19.200000
-0.002300  -19.400000
-0.001500  -19.400000
-0.001500  -19.600000
-0.000800  -19.800000
0.000000  -20.300000
0.000000  -20.100000
0.000000  -20.600000
0.001500  -20.400000
-0.000800  -20.900000
-0.002300  -20.800000
-0.000800  -21.200000
0.001500  -21.200000
0.003000  -21.300000
0.003000  -21.600000
0.004500  -21.400000
0.003000  -22.100000
0.003000  -22.100000
0.000700  -22.200000
0.000000  -22.400000
0.000000  -22.500000
-0.000800  -22.500000
0.000000  -22.800000
0.000000  -23.000000
0.000700  -23.000000
-0.001500  -23.600000
-0.004600  -23.300000
-0.001500  -23.900000
-0.000800  -23.700000
-0.003000  -24.200000
-0.003000  -24.000000
-0.003000  -24.600000
-0.000800  -24.500000
-0.001500  -24.800000
0.000000  -24.800000
-0.000800  -25.100000
-0.001500  -25.100000
-0.000800  -25.400000
-0.001500  -25.300000
-0.000800  -25.600000
0.000700  -25.800000
0.000700  -25.800000
0.000700  -26.100000
0.001500  -26.100000
0.000700  -26.500000
0.000000  -26.600000
0.004500  -26.600000
0.001500  -26.800000
-0.001500  -27.000000
-0.002300  -27.000000
-0.004600  -27.100000
-0.005300  -27.300000
-0.005300  -27.400000
-0.006800  -27.600000
-0.006800  -27.600000
-0.003000  -28.000000
-0.003000  -27.700000
-0.001500  -28.300000
-0.001500  -28.000000
-0.003000  -28.400000
-0.003000  -28.500000
-0.001500  -28.500000
0.000000  -28.700000
0.001500  -28.700000
0.001500  -28.900000
0.001500  -29.000000
-0.000800  -29.000000
0.001500  -29.000000
0.001500  -29.200000
0.001500  -29.000000
0.003000  -29.400000
0.000700  -29.400000
0.000000  -29.600000
-0.001500  -29.700000
-0.001500  -29.600000
-0.000800  -30.100000
0.000700  -29.700000
0.000700  -30.000000
-0.001500  -29.800000
-0.000800  -30.200000
0.000000  -30.100000
0.000700  -30.300000
0.001500  -30.400000
0.000700  -30.500000
-0.000800  -30.400000
-0.002300  -30.400000
-0.001500  -30.800000
-0.001500  -30.400000
-0.002300  -30.900000
-0.003800  -30.600000
-0.003800  -31.100000
-0.003800  -30.800000
-0.005300  -31.100000
-0.004600  -31.100000
-0.003000  -31.100000
-0.001500  -31.400000
0.000700  -31.200000
-0.000800  -31.400000
-0.000800  -31.500000
-0.000800  -31.600000
-0.000800  -31.800000
-0.000800  -32.000000
-0.002300  -31.800000
-0.001500  -32.000000
-0.002300  -32.100000
-0.001500  -32.200000
-0.000800  -32.400000
0.000700  -32.200000
0.000700  -32.700000
0.001500  -32.400000
0.002200  -32.900000
0.000000  -32.600000
-0.000800  -33.000000
0.000700  -33.200000
0.001500  -33.000000
0.001500  -33.100000
0.000700  -33.300000
0.000700  -33.000000
0.001500  -33.400000
0.000700  -33.400000
0.000700  -33.600000
0.001500  -33.800000
0.000700  -33.700000
0.002200  -34.000000
0.001500  -33.800000
0.000700  -34.100000
0.002200  -34.000000
-0.000800  -34.200000
-0.001500  -34.500000
-0.000800  -34.400000
0.000700  -34.500000
0.000000  -34.500000
-0.001500  -34.400000
-0.001500  -34.700000
0.000700  -34.800000
0.002200  -34.600000
-0.000800  -35.000000
-0.000800  -34.700000
-0.000800  -35.100000
-0.001500  -34.900000
-0.000800  -35.100000
-0.000800  -35.200000
0.000700  -35.300000
0.000700  -35.300000
-0.000800  -35.400000
0.000700  -35.400000
0.000700  -35.500000
0.000000  -35.500000
-0.000800  -35.500000
-0.001500  -35.700000
-0.001500  -35.400000
0.001500  -35.800000
0.002200  -35.500000
0.001500  -35.800000
0.000700  -35.600000
0.000700  -35.700000
0.003000  -36.000000
0.002200  -35.700000
0.001500  -36.000000
0.000000  -35.600000
0.002200  -36.000000
0.000700  -35.900000
0.000000  -35.800000
-0.000800  -35.900000
-0.003000  -36.000000
-0.001500  -35.800000
-0.003000  -36.000000
-0.003000  -35.900000
-0.001500  -35.900000
-0.003000  -36.000000
-0.003000  -35.600000
-0.001500  -35.900000
-0.001500  -35.700000
-0.000800  -36.000000
-0.000800  -35.700000
-0.000800  -36.000000
-0.000800  -35.800000
-0.001500  -35.800000
-0.001500  -35.900000
-0.000800  -35.800000
-0.001500  -35.600000
-0.002300  -35.800000
-0.003000  -35.600000
-0.001500  -35.800000
0.000000  -35.700000
-0.001500  -35.500000
-0.002300  -35.800000
-0.001500  -35.300000
-0.002300  -35.500000
-0.003000  -35.400000
-0.004600  -35.300000
-0.004600  -35.400000
-0.004600  -35.100000
-0.003000  -35.100000
-0.001500  -35.200000
0.000700  -35.100000
0.001500  -34.900000
0.000700  -35.100000
0.003000  -34.700000
0.001500  -35.100000
-0.001500  -34.600000
-0.003800  -34.800000
-0.003800  -34.500000
-0.003000  -34.600000
-0.003000  -34.600000
-0.003000  -34.400000
-0.002300  -34.400000
0.000000  -34.200000
0.000000  -34.300000
0.000700  -34.200000
0.000700  -34.000000
-0.001500  -33.900000
0.000000  -33.900000
0.000700  -33.600000
0.000700  -33.900000
0.000000  -33.700000
-0.000800  -33.600000
0.000000  -33.500000
-0.001500  -33.200000
0.000700  -33.400000
-0.000800  -33.000000
0.000000  -33.100000
0.000700  -32.800000
-0.003000  -33.000000
-0.003800  -32.900000
-0.003000  -32.600000
-0.001500  -32.400000
-0.001500  -32.400000
-0.001500  -32.200000
-0.001500  -32.000000
-0.001500  -32.200000
-0.004600  -31.800000
-0.005300  -32.000000
-0.004600  -31.600000
-0.004600  -31.800000
-0.005300  -31.400000
-0.003000  -31.700000
-0.003000  -31.100000
-0.003000  -31.100000
-0.001500  -31.000000
-0.001500  -30.700000
-0.000800  -30.800000
0.001500  -30.700000
0.001500  -30.600000
0.001500  -30.400000
-0.001500  -30.500000
-0.004600  -30.100000
-0.000800  -30.200000
0.001500  -29.900000
0.000000  -30.000000
-0.000800  -29.700000
-0.000800  -29.500000
-0.000800  -29.700000
-0.001500  -29.300000
-0.003000  -29.500000
-0.003800  -29.100000
-0.003000  -29.100000
-0.002300  -28.900000
-0.003000  -28.800000
-0.003000  -28.600000
-0.002300  -28.700000
-0.001500  -28.200000
0.001500  -28.500000
0.002200  -27.900000
0.000700  -28.100000
0.000700  -27.900000
0.000700  -27.800000
-0.000800  -27.700000
-0.000800  -27.500000
0.000000  -27.500000
-0.003000  -27.100000
-0.002300  -27.100000
0.000000  -27.000000
0.000700  -26.900000
0.000700  -26.800000
0.000700  -26.600000
0.001500  -26.400000
0.000700  -26.500000
-0.002300  -26.200000
-0.003000  -26.000000
-0.002300  -25.900000
-0.001500  -25.700000
-0.001500  -25.800000
-0.003000  -25.200000
-0.000800  -25.700000
-0.001500  -25.100000
-0.000800  -25.200000
-0.001500  -24.900000
-0.001500  -24.800000
0.000000  -24.700000
-0.001500  -24.400000
-0.003000  -24.400000
-0.004600  -24.200000
-0.001500  -24.200000
0.000000  -23.600000
-0.001500  -24.000000
0.000000  -23.400000
0.001500  -23.600000
0.000700  -23.100000
0.000000  -23.300000
-0.000800  -22.900000
-0.001500  -22.800000
-0.002300  -22.700000
-0.001500  -22.300000
-0.001500  -22.300000
-0.002300  -22.100000
-0.002300  -22.100000
-0.000800  -21.900000
-0.001500  -21.700000
-0.002300  -21.300000
-0.001500  -21.500000
-0.000800  -21.100000
-0.000800  -20.900000
-0.002300  -20.800000
0.000000  -20.400000
0.000700  -20.700000
-0.000800  -20.100000
0.000000  -20.100000
-0.000800  -19.600000
-0.000800  -19.800000
-0.001500  -19.400000
-0.004600  -19.200000
-0.003000  -19.100000
-0.000800  -18.800000
0.000000  -18.400000
-0.000800  -18.700000
-0.002300  -18.300000
-0.000800  -18.100000
-0.002300  -18.000000
-0.003000  -17.600000
-0.000800  -17.800000
0.000700  -17.100000
0.000000  -17.200000
-0.001500  -17.000000
-0.000800  -16.700000
-0.000800  -16.700000
0.000000  -16.400000
0.000700  -16.100000
0.000700  -15.900000
0.001500  -15.800000
0.000000  -15.400000
-0.001500  -15.500000
-0.000800  -14.900000
-0.001500  -15.000000
-0.000800  -14.600000
0.000700  -14.600000
0.000000  -14.400000
0.000700  -14.200000
-0.001500  -14.000000
0.000700  -13.700000
0.000700  -13.600000
0.000000  -13.200000
-0.001500  -13.100000
-0.003800  -12.900000
-0.003000  -12.800000
-0.004600  -12.600000
-0.003000  -12.500000
0.000000  -11.900000
0.001500  -12.100000
0.001500  -11.600000
0.000700  -11.500000
0.000000  -11.300000
0.000000  -11.200000
-0.001500  -11.100000
-0.002300  -10.500000
-0.001500  -10.700000
-0.003000  -10.200000
-0.002300  -10.300000
-0.000800  -9.900000
-0.001500  -9.600000
-0.001500  -9.500000
-0.000800  -9.500000
-0.001500  -9.100000
-0.000800  -8.700000
-0.001500  -8.800000
-0.002300  -8.300000
-0.000800  -8.600000
0.000700  -8.000000
0.000000  -8.000000
0.000000  -7.700000
0.001500  -7.600000
0.000700  -7.400000
0.000000  -7.100000
0.000700  -7.100000
0.000000  -6.800000
-0.000800  -6.500000
-0.001500  -6.500000
-0.001500  -6.100000
-0.001500  -5.900000
-0.001500  -6.000000
-0.003000  -5.500000
-0.003800  -5.700000
-0.002300  -5.200000
-0.005300  -5.100000
-0.005300  -5.100000
-0.002300  -4.800000
-0.000800  -4.800000
0.000000  -4.300000
0.000000  -4.500000
-0.000800  -3.900000
0.000000  -4.000000
-0.000800  -3.800000
-0.003000  -3.600000
-0.003000  -3.300000
-0.000800  -3.500000
-0.000800  -2.900000
-0.003000  -3.100000
-0.003800  -2.900000
-0.004600  -2.600000
-0.001500  -2.700000
0.000700  -2.100000
-0.000800  -2.300000
-0.000800  -1.900000
0.000700  -1.800000
0.001500  -1.800000
0.005200  -1.400000
0.007500  -1.400000
0.010500  -1.200000
0.014200  -1.200000
0.011200  -1.000000
0.003000  -0.800000
-0.006000  -0.500000
-0.012000  -0.600000
-0.011300  -0.200000
-0.010500  -0.500000
-0.009100  0.000000
-0.005300  -0.200000
0.001500  0.100000
0.009000  0.100000
0.012000  0.400000
0.012700  0.600000
0.003000  0.400000
-0.003800  0.700000
-0.006800  0.800000
-0.008300  0.900000
-0.004600  0.900000
-0.003800  1.400000
-0.001500  1.100000
0.003000  1.400000
0.009000  1.400000
0.009000  1.700000
0.006000  1.800000
0.006000  1.700000
-0.000800  2.100000
-0.006800  1.800000
-0.012800  2.300000
-0.014300  2.100000
-0.015800  2.300000
-0.015800  2.500000
-0.009100  2.600000
-0.006800  2.600000
-0.008300  2.700000
-0.009100  2.800000
-0.009800  2.700000
-0.010500  3.300000
-0.005300  3.000000
0.002200  3.500000
0.009000  3.000000
0.012000  3.600000
0.011200  3.200000
0.010500  3.600000
0.006700  3.600000
-0.000800  3.600000
0.001500  3.900000
0.006700  3.800000
0.004500  3.700000
0.000700  4.000000
-0.000800  4.000000
-0.003800  4.000000
-0.005300  4.300000
-0.002300  4.000000
-0.000800  4.300000
-0.003000  4.200000
-0.003000  4.200000
-0.006800  4.500000
-0.009100  4.200000
-0.008300  4.600000
-0.009100  4.300000
-0.006800  4.600000
-0.004600  4.500000
0.000000  4.600000
0.003000  4.700000
0.003000  4.500000
-0.004600  4.600000
-0.008300  4.800000
-0.006800  4.500000
-0.008300  4.700000
-0.003000  4.800000
0.001500  4.600000
0.005200  4.900000
0.012000  4.700000
0.010500  4.700000
0.003000  4.700000
-0.003000  4.800000
-0.006000  4.900000
-0.005300  4.700000
-0.004600  4.700000
-0.004600  4.700000
0.000700  4.600000
-0.002300  4.500000
0.000000  4.600000
0.003000  4.300000
0.004500  4.700000
0.006700  4.200000
0.003700  4.700000
0.003000  4.300000
-0.006800  4.300000
-0.012800  4.400000
-0.010500  4.200000
-0.015000  4.400000
-0.009800  4.100000
0.003000  4.100000
0.009000  4.000000
0.010500  4.100000
0.004500  4.000000
-0.001500  4.000000
-0.005300  3.600000
-0.008300  4.000000
-0.006800  3.600000
-0.003000  3.900000
0.003000  3.700000
0.009000  3.600000
0.012000  3.600000
0.012000  3.400000
0.010500  3.600000
0.008200  3.100000
0.000700  3.300000
-0.015800  3.100000
-0.020300  3.000000
-0.012000  2.900000
-0.003800  3.000000
0.004500  3.000000
0.010500  2.600000
0.018000  2.700000
0.018000  2.400000
0.011200  2.700000
-0.004600  2.100000
-0.017300  2.500000
-0.021800  1.800000
-0.026300  2.300000
-0.017300  1.800000
-0.006800  2.000000
0.008200  1.900000
0.021700  1.800000
0.024000  1.500000
0.020200  1.600000
0.006700  1.300000
-0.003800  1.300000
-0.004600  1.100000
-0.010500  1.000000
-0.018800  1.100000
-0.018800  0.800000
-0.015000  0.900000
-0.010500  0.700000
0.001500  0.500000
0.012000  0.600000
0.021000  0.200000
0.031500  0.500000
0.031500  -0.200000
0.021000  -0.100000
0.008200  -0.200000
-0.006800  -0.200000
-0.021800  -0.500000
-0.033800  -0.300000
-0.030800  -0.700000
-0.024800  -0.300000
-0.021000  -0.700000
-0.015000  -0.600000
-0.005300  -0.700000
0.000700  -1.000000
-0.007500  -0.900000
-0.024000  -1.200000
-0.022500  -0.900000
-0.006800  -1.100000
-0.001500  -1.100000
0.004500  -1.200000
0.001500  -1.200000
-0.001500  -1.300000
-0.006000  -1.500000
-0.012000  -1.400000
0.005200  -1.300000
0.031500  -1.200000
0.052500  -1.400000
0.065200  -0.900000
0.057700  -1.200000
0.037500  -0.900000
0.021700  -1.100000
0.003000  -0.800000
-0.014300  -0.800000
-0.040500  -0.700000
-0.069100  -0.600000
-0.080300  -0.500000
-0.066000  -0.500000
-0.042800  -0.300000
-0.036800  -0.300000
-0.021000  -0.500000
0.015000  0.000000
0.055500  -0.300000
0.075000  0.200000
0.055500  -0.100000
0.033700  0.000000
0.016500  0.000000
0.005200  -0.300000
0.012700  0.100000
0.019500  -0.200000
0.015000  0.200000
-0.005300  -0.400000
-0.016500  -0.100000
-0.010500  -0.100000
-0.015800  -0.300000
-0.017300  -0.300000
-0.007500  -0.400000
-0.001500  -0.500000
0.007500  -0.600000
0.005200  -0.500000
-0.008300  -1.100000
-0.012800  -0.900000
-0.011300  -1.200000
-0.008300  -1.000000
-0.007500  -1.500000
-0.009100  -1.400000
-0.010500  -1.600000
-0.011300  -1.800000
-0.010500  -1.800000
-0.012800  -2.100000
-0.015800  -2.200000
-0.016500  -2.300000
-0.020300  -2.400000
-0.023300  -2.700000
-0.023300  -2.600000
-0.021800  -3.000000
-0.015000  -2.800000
-0.000800  -3.100000
0.023200  -3.000000
0.042700  -3.000000
0.048700  -3.200000
0.041200  -3.100000
0.030700  -3.400000
0.021700  -3.100000
0.010500  -3.300000
0.003000  -3.300000
-0.009100  -3.200000
-0.019500  -3.500000
-0.021800  -3.600000
-0.025600  -3.200000
-0.033800  -3.600000
-0.033000  -3.100000
-0.027000  -3.500000
-0.017300  -3.200000
0.003700  -3.200000
0.018000  -3.200000
0.033700  -2.900000
0.048000  -3.000000
0.046500  -2.800000
0.046500  -2.800000
0.036000  -2.700000
0.021700  -2.500000
0.021700  -2.300000
0.010500  -2.500000
-0.008300  -2.200000
-0.015800  -2.200000
-0.020300  -1.900000
-0.020300  -1.900000
-0.018100  -1.900000
-0.016500  -1.500000
-0.015800  -1.800000
-0.015000  -1.300000
-0.014300  -1.500000
-0.012800  -1.300000
-0.012800  -1.400000
-0.012000  -1.300000
-0.012000  -1.000000
-0.012000  -0.900000
-0.009800  -0.800000
-0.010500  -0.700000
-0.007500  -0.500000
-0.004600  -0.800000
-0.003000  -0.500000
0.000000  -0.800000
-0.000800  -0.300000
0.000000  -0.600000
0.002200  -0.200000
0.005200  -0.400000
0.004500  -0.200000
0.003000  -0.200000
0.002200  -0.400000
0.001500  0.000000
0.000700  -0.200000
0.001500  -0.400000
-0.000800  -0.400000
-0.001500  -0.300000
0.002200  -0.400000
0.003000  -0.100000
-0.001500  -0.500000
-0.005300  -0.300000
-0.006800  -0.200000
-0.005300  -0.500000
-0.003000  -0.200000
-0.001500  -0.500000
-0.008300  -0.100000
-0.019500  -0.500000
-0.018100  -0.100000
-0.014300  -0.400000
-0.012800  -0.300000
-0.003800  -0.200000
0.007500  -0.200000
0.018700  -0.200000
0.023200  0.000000
0.024000  -0.400000
0.024000  -0.200000
0.016500  0.000000
0.003000  0.000000
-0.001500  0.200000
0.001500  0.000000
-0.002300  0.200000
-0.004600  0.000000
-0.009100  0.100000
-0.010500  0.200000
-0.008300  0.000000
-0.008300  0.200000
-0.006800  0.200000
-0.010500  0.200000
-0.018100  0.400000
-0.019500  0.400000
-0.012000  0.100000
-0.008300  0.500000
0.000000  0.200000
0.012000  0.700000
0.019500  0.200000
0.020200  0.600000
0.015700  0.400000
0.009700  0.600000
0.003000  0.700000
-0.005300  0.600000
-0.007500  0.800000
-0.002300  0.600000
0.003000  0.800000
0.004500  0.700000
0.007500  0.800000
0.006700  0.600000
0.002200  0.900000
0.000700  0.700000
0.000700  0.900000
-0.001500  0.700000
-0.005300  0.800000
-0.006800  0.900000
-0.005300  0.900000
-0.004600  1.100000
-0.000800  0.700000
-0.001500  1.200000
-0.003800  1.000000
-0.004600  1.100000
-0.007500  1.000000
-0.008300  1.000000
-0.007500  0.900000
-0.006800  1.100000
-0.003000  1.100000
0.001500  1.200000
0.001500  1.100000
0.000700  1.000000
0.003000  1.300000
0.001500  0.900000
-0.000800  1.400000
0.000000  1.200000
0.000000  1.300000
0.000700  1.100000
-0.001500  1.200000
0.000000  1.500000
0.000000  1.300000
-0.002300  1.400000
-0.003000  1.400000
-0.002300  1.500000
-0.000800  1.400000
-0.000800  1.300000
-0.001500  1.400000
-0.001500  1.600000
-0.000800  1.300000
-0.000800  1.600000
-0.003000  1.300000
-0.004600  1.700000
-0.003000  1.700000
-0.000800  1.500000
0.003000  1.800000
0.004500  1.600000
0.005200  1.400000
0.005200  1.700000
0.003000  1.600000
0.004500  1.500000
0.005200  1.800000
0.003700  1.500000
-0.000800  1.800000
-0.003800  1.500000
-0.003800  1.800000
-0.005300  1.700000
-0.008300  1.800000
-0.007500  1.800000
-0.009100  1.700000
-0.009100  1.700000
-0.006800  1.800000
-0.004600  1.800000
-0.003000  1.800000
-0.001500  1.800000
0.001500  1.700000
0.004500  2.100000
0.008200  1.700000
0.008200  2.100000
0.007500  1.700000
0.006000  1.900000
0.003000  1.700000
0.000700  2.000000
-0.001500  2.000000
-0.000800  1.900000
-0.002300  2.100000
-0.004600  1.800000
-0.003800  1.900000
-0.003000  2.100000
-0.001500  2.000000
-0.001500  2.200000
-0.001500  2.200000
-0.004600  2.100000
-0.005300  2.200000
-0.004600  2.200000
-0.005300  2.300000
-0.005300  2.500000
-0.006000  2.300000
-0.006800  2.600000
-0.012000  2.200000
-0.018800  2.600000
-0.022500  2.400000
-0.016500  2.700000
-0.012000  2.700000
-0.006000  2.700000
0.006700  2.800000
0.019500  2.900000
0.031500  2.800000
0.030700  3.000000
0.024000  2.900000
0.021700  2.800000
0.011200  3.000000
-0.000800  2.800000
-0.008300  3.100000
-0.006800  3.000000
-0.005300  3.100000
-0.004600  3.000000
-0.005300  3.000000
-0.007500  3.100000
-0.005300  3.000000
-0.004600  3.100000
-0.005300  3.000000
-0.006000  3.100000
-0.006000  3.000000
-0.004600  3.200000
-0.003000  2.800000
-0.000800  3.300000
0.000700  3.000000
0.000700  3.200000
0.000700  3.100000
-0.001500  3.100000
-0.001500  3.100000
-0.003000  2.900000
-0.003000  3.100000
-0.001500  2.800000
-0.003800  2.900000
-0.003000  3.000000
-0.001500  3.000000
-0.001500  2.800000
0.000700  3.000000
0.000000  2.700000
-0.001500  3.000000
0.000000  2.700000
0.000700  2.800000
0.001500  2.900000
0.000700  2.600000
-0.000800  2.800000
-0.002300  2.700000
-0.001500  2.900000
-0.003000  2.600000
-0.003000  2.700000
-0.002300  2.700000
-0.003800  2.600000
-0.000800  2.700000
0.000000  2.700000
-0.000800  2.800000
0.000000  2.600000
-0.000800  2.800000
0.000700  2.600000
0.000000  2.800000
0.000000  2.400000
0.000000  2.700000
-0.000800  2.600000
-0.000800  2.600000
-0.000800  2.500000
-0.000800  2.500000
-0.000800  2.800000
-0.000800  2.700000
-0.000800  2.600000
-0.002300  2.600000
-0.001500  2.700000
-0.001500  2.400000
-0.000800  2.600000
0.000700  2.500000
0.000700  2.700000
0.003000  2.700000
0.002200  2.700000
0.002200  2.800000
0.001500  2.600000
-0.001500  2.900000
-0.001500  2.500000
-0.003000  3.000000
-0.003800  2.600000
-0.001500  2.900000
-0.001500  2.700000
0.000000  2.700000
-0.000800  2.700000
-0.000800  2.800000
0.000700  2.700000
0.001500  2.800000
0.002200  2.900000
0.003000  2.700000
0.003000  2.900000
0.002200  2.700000
-0.000800  3.000000
-0.001500  2.800000
-0.003000  2.800000
-0.001500  2.900000
-0.001500  2.600000
-0.003000  2.800000
-0.000800  2.700000
-0.003000  2.800000
-0.001500  3.000000
-0.003000  2.800000
-0.001500  2.800000
-0.001500  2.900000
-0.003800  2.700000
-0.003800  3.100000
-0.003000  2.700000
-0.003000  3.000000
-0.005300  2.700000
-0.003800  2.900000
-0.002300  2.700000
-0.003000  2.800000
-0.003000  3.000000
-0.001500  2.700000
-0.002300  2.700000
-0.002300  2.700000
0.000700  2.800000
0.000000  2.600000
0.001500  2.900000
-0.000800  2.700000
-0.003000  2.800000
-0.000800  2.600000
0.000700  2.700000
0.000700  2.800000
0.000000  2.600000
-0.000800  2.800000
0.000700  2.600000
0.000700  3.000000
0.000700  2.600000
0.000000  2.600000
-0.001500  2.700000
-0.002300  2.800000
-0.002300  2.600000
-0.001500  2.600000
-0.000800  2.700000
0.000000  2.500000
0.000000  2.800000
-0.000800  2.600000
-0.000800  2.800000
0.001500  2.400000
0.000700  2.700000
0.001500  2.600000
0.001500  2.700000
0.000700  2.400000
0.001500  2.300000
0.000700  2.400000
0.000000  2.400000
-0.000800  2.600000
-0.001500  2.400000
-0.001500  2.500000
-0.003000  2.500000
0.000000  2.600000
-0.000800  2.300000
0.000000  2.500000
0.003000  2.500000
0.001500  2.300000
0.000700  2.600000
0.000000  2.200000
0.000000  2.600000
-0.000800  2.100000
-0.003000  2.400000
-0.003800  2.200000
-0.004600  2.400000
-0.003000  2.400000
-0.001500  2.500000
-0.002300  2.100000
-0.003000  2.500000
-0.003000  2.200000
-0.004600  2.400000
-0.001500  2.200000
0.000000  2.200000
-0.001500  2.300000
-0.000800  2.100000
-0.002300  2.400000
-0.002300  2.200000
-0.002300  2.200000
-0.003000  2.200000
-0.002300  2.200000
-0.003800  2.200000
-0.003000  2.100000
-0.003000  2.100000
-0.003800  2.100000
-0.004600  2.100000
-0.005300  1.900000
-0.004600  2.200000
-0.002300  1.800000
0.000700  2.200000
0.000000  1.900000
0.001500  2.000000
0.003000  1.900000
-0.000800  2.100000
-0.002300  2.000000
-0.002300  1.800000
-0.003000  1.900000
-0.000800  1.900000
-0.000800  1.800000
-0.003000  1.600000
-0.003000  2.100000
-0.003000  1.500000
-0.001500  1.800000
-0.001500  1.600000
-0.001500  1.900000
0.000000  1.800000
0.000000  1.800000
0.000700  1.800000
-0.000800  1.700000
-0.002300  1.800000
-0.000800  1.500000
-0.002300  1.800000
-0.001500  1.600000
-0.001500  1.700000
-0.003000  1.600000
-0.002300  1.800000
-0.003800  1.500000
-0.003000  1.800000
-0.000800  1.600000
-0.001500  1.600000
-0.000800  1.600000
-0.001500  1.500000
-0.000800  1.800000
0.000700  1.400000
0.003000  1.800000
0.003000  1.500000
0.001500  1.800000
0.000700  1.700000
0.003000  1.500000
0.002200  1.700000
-0.000800  1.500000
-0.001500  1.300000
-0.001500  1.800000
-0.000800  1.400000
-0.001500  1.700000
-0.001500  1.700000
0.000700  1.500000
-0.000800  1.700000
0.001500  1.400000
0.000700  1.500000
-0.001500  1.300000
0.000000  1.500000
-0.000800  1.500000
-0.001500  1.500000
-0.001500  1.400000
-0.000800  1.400000
0.000700  1.500000
0.002200  1.500000
0.000700  1.400000
0.000000  1.300000
0.000700  1.500000
-0.001500  1.200000
-0.000800  1.500000
-0.000800  1.300000
0.000700  1.600000
0.001500  1.500000
0.000700  1.500000
-0.002300  1.500000
-0.004600  1.300000
-0.003000  1.400000
-0.003000  1.500000
-0.000800  1.300000
-0.001500  1.300000
-0.001500  1.500000
-0.001500  1.200000
-0.003800  1.500000
-0.004600  1.200000
-0.004600  1.500000
-0.002300  1.200000
0.000700  1.400000
0.000700  1.500000
0.000700  1.200000
0.001500  1.400000
0.001500  1.100000
0.001500  1.500000
0.000000  1.300000
-0.000800  1.300000
-0.002300  1.200000
-0.001500  1.000000
0.000000  1.200000
-0.000800  1.300000
0.000700  1.300000
-0.001500  1.100000
-0.002300  1.400000
-0.000800  1.000000
0.000000  1.400000
0.001500  0.900000
-0.001500  1.400000
-0.004600  1.000000
-0.004600  1.300000
-0.004600  0.900000
-0.003000  1.000000
-0.001500  1.100000
-0.003000  1.100000
-0.004600  0.900000
-0.004600  1.300000
-0.003000  0.900000
0.000000  0.900000
0.003000  1.100000
0.001500  0.900000
-0.001500  1.300000
-0.001500  0.700000
-0.000800  1.000000
0.000700  1.000000
-0.000800  0.900000
0.000000  0.900000
-0.000800  0.700000
-0.001500  0.900000
-0.001500  0.700000
-0.001500  0.800000
-0.001500  0.800000
-0.000800  0.700000
0.000000  0.600000
-0.001500  0.800000
0.000700  0.300000
0.001500  0.600000
0.000700  0.300000
0.000000  0.400000
-0.001500  0.300000
-0.002300  0.300000
-0.002300  0.500000
-0.000800  0.100000
-0.000800  0.400000
-0.001500  0.200000
-0.000800  0.200000
0.000000  0.000000
0.001500  0.000000
0.003000  -0.300000
0.000000  -0.100000
0.000000  -0.200000
0.000700  -0.200000
-0.000800  -0.300000
-0.001500  -0.500000
-0.003000  -0.200000
-0.003000  -0.700000
-0.004600  -0.400000
-0.004600  -0.800000
-0.003000  -0.500000
-0.001500  -0.800000
0.000700  -0.800000
0.000700  -1.000000
0.000000  -1.000000
0.000000  -1.100000
0.000700  -1.200000
0.000700  -1.000000
0.000700  -1.500000
-0.000800  -1.300000
-0.001500  -1.700000
-0.001500  -1.400000
-0.001500  -1.900000
-0.002300  -1.700000
-0.003000  -1.900000
-0.001500  -2.000000
-0.002300  -2.000000
-0.003000  -2.200000
-0.002300  -2.200000
-0.002300  -2.300000
0.000700  -2.400000
0.002200  -2.400000
0.002200  -2.700000
0.001500  -2.800000
0.000700  -2.600000
0.000700  -3.000000
0.000000  -2.900000
0.000700  -3.100000
0.000000  -3.200000
-0.001500  -3.200000
-0.000800  -3.500000
-0.000800  -3.300000
-0.002300  -3.800000
-0.002300  -3.500000
-0.001500  -3.700000
0.000000  -4.000000
0.000000  -4.000000
-0.000800  -4.000000
-0.001500  -4.400000
-0.001500  -4.200000
-0.003000  -4.500000
-0.004600  -4.300000
-0.003800  -4.600000
-0.003000  -4.800000
-0.002300  -4.800000
-0.004600  -5.100000
-0.004600  -5.000000
-0.000800  -5.400000
0.000700  -5.200000
0.000000  -5.300000
0.000000  -5.400000
0.001500  -5.600000
-0.000800  -5.700000
0.001500  -5.900000
0.001500  -5.900000
-0.000800  -6.100000
0.000000  -6.300000
-0.002300  -6.000000
-0.002300  -6.600000
-0.002300  -6.400000
-0.003800  -6.800000
-0.003000  -6.700000
-0.003800  -7.000000
-0.004600  -6.800000
-0.004600  -7.200000
-0.003000  -7.300000
-0.000800  -7.400000
-0.002300  -7.500000
-0.002300  -7.700000
-0.001500  -7.800000
-0.001500  -7.700000
0.000700  -8.100000
0.000700  -8.100000
-0.000800  -8.300000
-0.003000  -8.200000
-0.003000  -8.600000
-0.003000  -8.700000
-0.001500  -8.900000
-0.000800  -9.100000
-0.002300  -9.000000
-0.003800  -9.500000
-0.004600  -9.400000
-0.000800  -9.700000
-0.000800  -9.600000
-0.001500  -10.000000
-0.001500  -9.900000
0.000000  -10.200000
0.000700  -10.300000
0.002200  -10.400000
0.003000  -10.600000
0.000700  -10.500000
0.000700  -11.000000
0.000700  -10.800000
0.000700  -11.300000
0.000000  -11.000000
-0.002300  -11.700000
-0.000800  -11.500000
-0.001500  -11.800000
-0.001500  -12.100000
0.000000  -12.200000
0.001500  -12.300000
0.000700  -12.700000
0.000700  -12.700000
0.003000  -13.000000
0.003700  -13.300000
0.004500  -13.300000
0.004500  -13.800000
0.003000  -13.800000
0.000700  -14.200000
0.000000  -14.300000
-0.000800  -14.600000
-0.003000  -14.900000
-0.003800  -14.800000
-0.003000  -15.500000
-0.001500  -15.500000
-0.000800  -15.800000
-0.000800  -15.900000
0.000000  -16.300000
-0.001500  -16.400000
-0.000800  -17.000000
-0.000800  -16.800000
-0.003000  -17.600000
-0.003000  -17.500000
-0.001500  -18.000000
-0.003000  -18.000000
-0.004600  -18.300000
-0.004600  -18.600000
-0.004600  -18.900000
-0.003800  -19.400000
-0.004600  -19.500000
-0.003800  -19.800000
-0.005300  -20.200000
-0.005300  -20.600000
-0.005300  -20.500000
-0.006800  -21.100000
-0.007500  -21.200000
-0.007500  -21.700000
-0.008300  -21.900000
-0.007500  -22.200000
-0.006800  -22.600000
-0.009100  -22.700000
-0.010500  -23.500000
-0.008300  -23.300000
-0.006000  -24.100000
-0.003800  -24.000000
-0.003000  -24.500000
-0.003000  -24.800000
-0.000800  -25.100000
-0.000800  -25.600000
-0.000800  -26.000000
0.001500  -26.200000
0.002200  -26.400000
0.003000  -26.800000
0.003000  -27.000000
0.003000  -27.500000
0.003700  -27.500000
0.004500  -28.300000
0.005200  -28.300000
0.006700  -28.900000
0.005200  -29.000000
0.006000  -29.100000
0.003700  -29.700000
0.002200  -30.000000
0.003000  -30.200000
0.003000  -30.600000
0.004500  -31.000000
0.004500  -31.200000
0.003000  -31.700000
0.001500  -31.800000
0.003700  -32.300000
0.003700  -32.400000
0.004500  -32.800000
0.004500  -32.900000
0.002200  -33.300000
0.005200  -33.800000
0.004500  -33.800000
0.002200  -34.600000
0.001500  -34.600000
-0.001500  -35.000000
0.000700  -35.100000
-0.000800  -35.400000
-0.004600  -35.600000
-0.008300  -36.200000
-0.010500  -36.000000
-0.007500  -36.800000
-0.009100  -36.500000
-0.006800  -36.900000
-0.005300  -37.200000
-0.003000  -37.500000
-0.001500  -37.900000
-0.001500  -38.100000
0.000000  -38.300000
-0.002300  -38.600000
-0.001500  -38.700000
-0.000800  -39.100000
0.000000  -39.300000
-0.000800  -39.600000
0.000700  -39.800000
0.000000  -40.100000
0.000700  -40.300000
0.002200  -40.600000
0.000000  -40.700000
-0.000800  -41.300000
0.000700  -41.000000
0.000000  -41.500000
0.000700  -41.500000
0.000000  -41.900000
-0.000800  -42.100000
0.001500  -42.200000
0.001500  -42.500000
0.000700  -42.600000
-0.000800  -42.700000
-0.000800  -43.000000
0.000700  -43.300000
-0.000800  -43.300000
-0.001500  -43.800000
-0.001500  -43.600000
-0.000800  -44.100000
-0.001500  -44.100000
-0.001500  -44.400000
-0.000800  -44.600000
-0.000800  -44.900000
-0.000800  -45.200000
-0.000800  -45.100000
0.000000  -45.800000
-0.001500  -45.700000
-0.000800  -46.200000
0.000700  -46.400000
-0.000800  -46.400000
0.000000  -46.700000
0.000700  -47.200000
-0.001500  -47.000000
-0.000800  -47.600000
0.000000  -47.900000
0.000000  -47.900000
-0.000800  -48.400000
-0.003000  -48.100000
-0.003800  -48.900000
-0.001500  -48.800000
-0.001500  -49.300000
-0.003000  -49.300000
-0.003000  -49.700000
-0.000800  -49.800000
0.000700  -50.100000
0.000700  -50.300000
-0.000800  -50.600000
-0.000800  -50.700000
-0.001500  -50.800000
-0.003000  -51.200000
-0.000800  -51.200000
0.000700  -51.700000
0.003000  -51.500000
0.003700  -51.800000
0.000700  -51.900000
0.000700  -52.100000
0.003000  -52.400000
0.003000  -52.500000
0.002200  -52.700000
0.001500  -53.100000
0.000700  -53.100000
-0.000800  -53.200000
-0.001500  -53.600000
-0.001500  -53.600000
-0.000800  -54.000000
0.000700  -53.700000
0.000000  -54.300000
-0.001500  -54.100000
-0.001500  -54.600000
-0.000800  -54.600000
-0.001500  -54.700000
-0.003000  -55.000000
-0.003800  -55.000000
-0.003000  -55.300000
-0.001500  -55.300000
0.000000  -55.400000
0.000700  -55.500000
0.002200  -55.800000
0.003000  -55.700000
0.003000  -56.000000
0.002200  -55.900000
0.000700  -56.200000
0.000000  -56.200000
0.000700  -56.300000
0.001500  -56.500000
0.001500  -56.300000
0.001500  -56.700000
0.000700  -56.500000
-0.000800  -57.000000
-0.003800  -56.700000
-0.003000  -56.800000
-0.003000  -56.900000
-0.004600  -57.000000
-0.004600  -56.800000
-0.000800  -57.000000
-0.000800  -57.100000
-0.001500  -57.000000
-0.001500  -57.400000
-0.002300  -57.100000
0.000000  -57.500000
0.001500  -57.200000
0.002200  -57.500000
0.004500  -57.400000
0.004500  -57.500000
0.000700  -57.700000
-0.003000  -57.500000
-0.004600  -57.600000
-0.006000  -57.500000
-0.008300  -57.500000
-0.008300  -57.600000
-0.006000  -57.600000
-0.004600  -57.500000
-0.004600  -57.500000
-0.002300  -57.300000
-0.000800  -57.400000
-0.000800  -57.300000
0.000000  -57.200000
-0.000800  -57.400000
-0.000800  -57.200000
0.001500  -57.400000
0.000700  -56.900000
0.000000  -57.400000
-0.002300  -57.200000
-0.004600  -57.300000
-0.005300  -57.100000
-0.004600  -57.300000
-0.001500  -56.900000
-0.001500  -57.200000
0.000700  -56.900000
0.000000  -57.000000
-0.000800  -57.200000
-0.003000  -56.800000
-0.003000  -57.100000
0.000000  -56.700000
-0.000800  -56.800000
-0.000800  -56.600000
0.000700  -56.600000
0.000000  -56.700000
0.000000  -56.400000
-0.000800  -56.300000
-0.003000  -56.300000
-0.002300  -56.200000
-0.001500  -56.000000
-0.000800  -56.200000
-0.002300  -55.800000
-0.001500  -55.900000
0.000700  -55.500000
-0.001500  -55.800000
-0.001500  -55.400000
0.000000  -55.400000
0.000700  -55.400000
0.001500  -55.100000
0.000000  -55.000000
-0.001500  -54.700000
-0.000800  -54.800000
0.000700  -54.700000
0.000700  -54.500000
-0.000800  -54.200000
-0.000800  -54.400000
-0.003000  -54.000000
-0.004600  -54.100000
-0.001500  -53.800000
-0.001500  -53.600000
-0.001500  -53.600000
-0.003000  -53.400000
-0.002300  -53.500000
-0.002300  -53.000000
-0.000800  -53.300000
-0.000800  -52.700000
-0.000800  -52.700000
-0.001500  -52.500000
-0.004600  -52.200000
-0.001500  -52.200000
-0.001500  -52.100000
-0.003000  -51.800000
-0.001500  -51.600000
-0.001500  -51.500000
-0.002300  -51.300000
-0.000800  -51.400000
-0.000800  -50.900000
-0.000800  -51.100000
0.001500  -50.400000
-0.000800  -50.700000
-0.000800  -50.300000
0.000700  -50.200000
0.000000  -50.000000
0.001500  -49.700000
0.001500  -49.500000
0.001500  -49.200000
0.001500  -48.900000
0.001500  -48.600000
0.000700  -48.700000
0.000700  -48.300000
0.000700  -48.200000
-0.001500  -47.800000
-0.000800  -47.600000
-0.003000  -47.500000
-0.003800  -46.900000
-0.002300  -47.000000
-0.003000  -46.400000
-0.002300  -46.500000
-0.003000  -46.100000
-0.003000  -45.900000
-0.002300  -45.600000
-0.003800  -45.300000
-0.002300  -45.000000
-0.001500  -45.000000
-0.000800  -44.400000
-0.001500  -44.400000
-0.004600  -43.700000
-0.001500  -43.700000
-0.000800  -43.300000
0.000700  -43.000000
0.001500  -42.800000
0.001500  -42.400000
0.001500  -42.300000
0.000700  -41.900000
0.000700  -41.500000
-0.000800  -41.400000
0.000700  -41.100000
-0.001500  -40.800000
-0.002300  -40.600000
-0.003000  -40.000000
-0.004600  -40.100000
-0.001500  -39.400000
-0.001500  -39.000000
-0.001500  -39.000000
0.000700  -38.300000
0.000000  -38.500000
-0.003000  -37.700000
-0.001500  -37.800000
-0.000800  -37.200000
-0.000800  -37.100000
0.001500  -36.900000
0.003700  -36.500000
0.001500  -35.900000
-0.001500  -35.800000
0.000000  -35.500000
-0.000800  -35.100000
0.000700  -34.900000
-0.000800  -34.300000
-0.002300  -34.400000
-0.002300  -33.700000
-0.001500  -33.700000
-0.000800  -33.200000
-0.003000  -32.900000
-0.003000  -32.600000
-0.000800  -32.100000
-0.000800  -32.000000
0.000000  -31.700000
-0.000800  -31.300000
-0.000800  -30.900000
0.000000  -30.500000
0.000700  -30.100000
0.000700  -29.900000
0.000000  -29.400000
-0.000800  -29.200000
-0.001500  -28.900000
0.000000  -28.300000
-0.000800  -28.200000
-0.001500  -27.500000
-0.000800  -27.600000
-0.003000  -27.000000
-0.001500  -26.800000
-0.003000  -26.200000
-0.004600  -25.900000
-0.002300  -25.500000
-0.001500  -25.300000
-0.001500  -24.800000
-0.002300  -24.500000
-0.000800  -24.000000
-0.000800  -23.700000
-0.001500  -23.400000
-0.001500  -22.800000
-0.003000  -22.700000
-0.006000  -22.200000
-0.006800  -21.900000
-0.006800  -21.400000
-0.006000  -21.100000
-0.006000  -20.700000
-0.005300  -20.200000
-0.003000  -20.000000
-0.000800  -19.500000
0.001500  -19.100000
0.000700  -18.800000
0.000700  -18.600000
0.000700  -17.700000
0.000000  -17.800000
-0.000800  -17.100000
-0.001500  -17.100000
-0.000800  -16.300000
-0.002300  -16.100000
-0.000800  -15.800000
0.003000  -15.200000
0.000700  -15.000000
-0.004600  -14.400000
-0.008300  -14.300000
-0.006800  -14.000000
-0.006000  -13.500000
-0.003000  -13.100000
0.001500  -12.800000
-0.000800  -12.100000
-0.002300  -12.100000
-0.003800  -11.300000
-0.006000  -11.100000
-0.007500  -10.700000
-0.008300  -10.100000
-0.006800  -10.100000
-0.003000  -9.400000
0.001500  -9.300000
0.005200  -8.600000
0.010500  -8.600000
0.015000  -7.900000
0.014200  -7.700000
0.009000  -7.200000
0.008200  -6.800000
0.008200  -6.500000
0.007500  -6.100000
0.007500  -5.900000
0.000700  -5.300000
-0.016500  -5.300000
-0.030000  -4.500000
-0.021800  -4.500000
-0.013500  -3.700000
-0.008300  -3.600000
-0.000800  -3.200000
0.009000  -2.800000
0.017200  -2.400000
0.023200  -1.900000
0.023200  -1.600000
0.017200  -1.200000
0.015700  -1.000000
0.013500  -0.700000
0.006000  -0.400000
0.000000  0.100000
-0.003000  0.300000
-0.008300  0.900000
-0.019500  1.000000
-0.024000  1.400000
-0.023300  1.800000
-0.018800  1.800000
-0.012000  2.400000
-0.009800  2.400000
-0.004600  3.100000
-0.000800  2.900000
0.001500  3.300000
-0.002300  3.500000
-0.009100  3.800000
-0.006800  3.900000
-0.003000  4.300000
0.007500  4.100000
0.019500  4.700000
0.023200  4.900000
0.027000  5.000000
0.024000  5.300000
0.017200  5.100000
0.015700  5.400000
0.012700  5.500000
0.009000  5.600000
0.004500  5.900000
0.000700  5.600000
0.004500  5.800000
0.003000  6.100000
0.000700  6.000000
-0.000800  6.200000
-0.003000  6.200000
-0.006000  6.100000
-0.017300  6.500000
-0.029300  6.100000
-0.035300  6.600000
-0.029300  6.200000
-0.019500  6.400000
-0.010500  6.200000
-0.005300  6.200000
-0.006800  6.300000
-0.009100  6.000000
-0.009800  6.200000
-0.012000  6.000000
-0.012800  5.900000
-0.015800  6.000000
-0.018800  6.100000
-0.021800  5.800000
-0.019500  5.900000
-0.010500  5.800000
0.000700  5.700000
0.011200  5.800000
0.023200  5.400000
0.027000  5.700000
0.023200  5.300000
0.012000  5.600000
-0.000800  5.300000
-0.006800  5.600000
-0.007500  5.500000
-0.008300  5.500000
-0.016500  5.300000
-0.018100  5.300000
-0.006800  5.300000
-0.005300  5.200000
-0.012800  5.500000
-0.022500  5.100000
-0.024800  5.700000
-0.015800  5.000000
-0.004600  5.300000
0.009000  5.100000
0.016500  5.100000
0.016500  5.200000
0.015700  5.100000
0.008200  5.300000
-0.006800  5.000000
-0.024000  5.000000
-0.034600  4.900000
-0.048000  4.800000
-0.044300  4.900000
-0.021800  5.000000
-0.007500  4.900000
0.014200  4.700000
0.042700  4.900000
0.061500  4.400000
0.072000  4.600000
0.067500  4.300000
0.057000  4.600000
0.036700  4.300000
0.016500  4.300000
0.012000  4.000000
0.012000  3.900000
0.001500  3.900000
-0.011300  3.700000
-0.020300  3.700000
-0.027800  3.600000
-0.036800  3.300000
-0.031500  3.300000
-0.012800  3.000000
-0.006000  2.900000
-0.002300  2.900000
-0.001500  2.500000
-0.003000  2.400000
0.006000  2.500000
0.018700  2.200000
0.031500  2.200000
0.044200  2.000000
0.050200  2.000000
0.039700  1.800000
0.018000  1.500000
0.003000  1.400000
-0.000800  1.500000
0.012000  0.900000
0.003700  1.300000
-0.019500  0.600000
-0.019500  0.800000
-0.019500  0.500000
-0.015800  0.400000
-0.006000  0.400000
-0.008300  0.100000
-0.012800  0.100000
-0.011300  0.000000
-0.015800  0.000000
-0.023300  -0.300000
-0.018100  -0.400000
-0.013500  -0.500000
-0.003800  -0.600000
-0.001500  -1.000000
-0.006000  -0.900000
-0.005300  -1.500000
-0.009100  -1.400000
-0.012800  -1.600000
-0.024000  -1.800000
-0.034600  -1.600000
-0.035300  -2.200000
-0.030800  -1.900000
-0.018800  -2.300000
-0.005300  -2.000000
0.004500  -2.400000
0.016500  -2.300000
0.022500  -2.300000
0.015700  -2.300000
0.005200  -2.200000
-0.006800  -2.000000
-0.018800  -1.600000
-0.018800  -2.000000
-0.010500  -1.500000
-0.005300  -1.800000
0.002200  -1.400000
0.012700  -1.400000
0.009000  -1.000000
-0.003000  -0.800000
-0.009100  -0.700000
-0.016500  -0.500000
-0.030000  -0.700000
-0.033800  -0.200000
-0.017300  -0.300000
0.016500  0.000000
0.040500  0.100000
0.046500  0.100000
0.039000  -0.100000
0.028500  0.100000
0.029200  0.100000
0.029200  0.100000
0.027000  0.300000
0.012700  0.000000
-0.009800  0.400000
-0.015800  -0.200000
-0.015800  0.200000
-0.015800  -0.200000
-0.015800  0.100000
-0.017300  0.000000
-0.016500  -0.100000
-0.013500  0.000000
-0.012000  0.000000
-0.001500  -0.400000
0.006700  -0.300000
0.008200  -0.200000
0.019500  -0.500000
0.030700  -0.400000
0.020200  -0.800000
-0.001500  -0.900000
-0.008300  -1.100000
-0.007500  -1.100000
-0.010500  -1.400000
-0.006800  -1.600000
-0.006800  -1.500000
-0.009100  -1.900000
-0.011300  -2.100000
-0.013500  -2.200000
-0.012000  -2.300000
-0.012800  -2.500000
-0.015800  -2.400000
-0.020300  -2.800000
-0.020300  -2.500000
-0.015800  -2.900000
-0.007500  -2.800000
-0.002300  -2.900000
-0.003000  -2.900000
-0.006000  -2.800000
-0.009800  -3.100000
-0.004600  -2.900000
0.001500  -3.200000
0.003000  -3.200000
0.010500  -2.800000
0.019500  -2.900000
0.027000  -2.900000
0.031500  -2.700000
0.032200  -2.800000
0.033000  -2.500000
0.029200  -2.500000
0.015000  -2.600000
-0.001500  -2.200000
-0.009100  -2.500000
-0.004600  -1.800000
-0.002300  -2.300000
-0.001500  -1.900000
0.000700  -1.900000
0.003000  -1.700000
0.004500  -1.700000
0.005200  -1.500000
0.012000  -1.400000
0.014200  -1.400000
0.006000  -1.000000
-0.004600  -1.000000
-0.006800  -0.500000
-0.006800  -1.000000
-0.009100  -0.400000
-0.007500  -0.700000
-0.008300  -0.400000
-0.009100  -0.500000
-0.006800  -0.500000
-0.006800  -0.100000
-0.002300  -0.300000
0.003700  0.200000
0.004500  -0.100000
-0.004600  -0.200000
-0.010500  0.200000
-0.009100  0.100000
-0.009100  0.000000
-0.004600  0.300000
0.000000  0.200000
0.003000  0.100000
0.000700  0.100000
-0.006800  0.000000
-0.008300  0.400000
-0.008300  0.000000
-0.007500  0.300000
-0.009100  0.000000
-0.010500  0.100000
-0.009800  -0.200000
-0.012000  0.000000
-0.010500  0.000000
-0.009800  -0.100000
-0.006800  -0.200000
-0.004600  0.000000
-0.003800  -0.400000
-0.003000  -0.200000
-0.005300  -0.400000
-0.013500  -0.500000
-0.020300  -0.500000
-0.015800  -0.800000
-0.009100  -0.600000
-0.005300  -0.900000
0.001500  -0.900000
0.007500  -1.000000
0.014200  -1.000000
0.018700  -1.000000
0.018700  -1.000000
0.014200  -1.000000
0.009000  -1.200000
0.001500  -1.100000
-0.007500  -1.400000
-0.004600  -1.000000
0.000700  -1.400000
0.001500  -1.200000
0.002200  -1.500000
0.002200  -1.100000
0.000000  -1.400000
-0.001500  -1.400000
-0.002300  -1.400000
-0.002300  -1.400000
0.000000  -1.100000
0.000700  -1.200000
0.002200  -1.200000
0.002200  -1.200000
0.003000  -1.200000
0.003000  -1.500000
0.003000  -0.900000
0.003700  -1.400000
0.000700  -0.900000
0.000700  -1.100000
0.002200  -1.100000
0.000700  -1.000000
0.002200  -1.200000
0.003700  -1.000000
0.001500  -1.100000
0.000700  -0.700000
0.000700  -1.100000
0.000700  -1.000000
-0.000800  -1.100000
-0.001500  -1.000000
-0.000800  -1.000000
-0.001500  -1.000000
-0.002300  -0.900000
-0.003000  -1.000000
-0.003000  -0.700000
-0.003000  -1.000000
0.000000  -0.700000
0.001500  -1.200000
-0.001500  -0.700000
-0.001500  -1.000000
-0.000800  -0.800000
0.001500  -0.900000
0.000000  -0.800000
-0.000800  -0.800000
0.000000  -0.600000
-0.000800  -0.700000
0.000000  -0.700000
0.000700  -0.900000
-0.000800  -0.700000
-0.001500  -0.800000
-0.001500  -0.600000
-0.003000  -0.400000
-0.003000  -0.800000
-0.003800  -0.500000
-0.004600  -0.700000
-0.003000  -0.500000
-0.004600  -0.500000
-0.006000  -0.600000
-0.006000  -0.200000
-0.004600  -0.300000
-0.002300  -0.400000
-0.003000  -0.300000
-0.002300  -0.200000
-0.003000  -0.500000
-0.003800  -0.200000
-0.005300  -0.500000
-0.003800  0.000000
-0.003000  -0.400000
-0.001500  0.300000
0.001500  -0.100000
-0.000800  0.000000
0.000700  -0.100000
-0.000800  0.000000
-0.001500  0.000000
-0.000800  0.000000
-0.000800  -0.100000
-0.000800  0.100000
-0.001500  0.000000
-0.002300  -0.200000
-0.002300  0.300000
-0.002300  0.000000
-0.000800  0.400000
-0.001500  0.100000
0.000000  0.400000
-0.000800  0.300000
-0.000800  0.400000
0.000000  0.500000
0.000700  0.300000
0.001500  0.700000
0.000700  0.500000
-0.000800  0.900000
0.000700  0.800000
-0.001500  0.800000
-0.003000  0.900000
-0.000800  1.200000
0.001500  1.000000
0.003700  1.100000
0.004500  1.100000
0.003700  1.000000
0.003000  1.400000
0.002200  1.100000
0.000000  1.500000
0.000700  1.300000
-0.000800  1.800000
-0.003000  1.400000
-0.002300  1.700000
-0.002300  1.500000
0.000700  1.600000
0.001500  1.800000
0.000000  1.800000
-0.001500  1.800000
-0.002300  2.000000
-0.001500  1.900000
-0.000800  2.100000
-0.001500  2.100000
-0.002300  2.100000
0.000700  2.100000
-0.000800  1.900000
-0.003000  2.300000
-0.000800  2.200000
-0.001500  2.300000
-0.001500  2.400000
-0.003000  2.300000
-0.002300  2.400000
-0.002300  2.400000
-0.002300  2.400000
-0.003000  2.400000
-0.004600  2.500000
-0.001500  2.400000
-0.001500  2.600000
-0.003000  2.200000
-0.003800  2.800000
-0.006000  2.600000
-0.007500  2.700000
-0.006000  2.500000
-0.005300  2.600000
-0.003800  2.600000
-0.003000  2.500000
-0.004600  2.600000
-0.004600  2.600000
-0.003800  2.600000
-0.003000  2.700000
-0.002300  2.700000
-0.002300  2.400000
-0.003000  2.700000
-0.002300  2.600000
-0.002300  2.800000
-0.003000  2.600000
-0.003800  2.700000
-0.001500  2.700000
-0.000800  2.500000
0.000700  2.900000
0.001500  2.600000
0.000000  2.900000
-0.001500  2.600000
-0.001500  2.700000
-0.000800  2.600000
-0.000800  2.600000
-0.000800  2.700000
-0.000800  2.800000
0.001500  2.700000
0.001500  2.700000
0.001500  2.800000
0.003700  2.600000
0.003700  3.100000
0.003000  2.500000
0.001500  3.100000
0.003000  2.700000
0.003000  3.000000
0.003000  2.700000
0.003000  2.800000
0.003000  2.900000
0.001500  2.900000
0.003000  3.000000
0.003000  3.100000
0.003700  3.000000
0.004500  3.100000
0.003000  3.100000
0.003000  3.000000
0.003000  3.200000
0.001500  3.000000
0.003000  3.300000
0.003700  3.000000
0.000700  3.100000
-0.000800  3.100000
-0.000800  3.000000
-0.000800  3.400000
-0.001500  3.100000
-0.003000  3.000000
-0.003000  3.200000
-0.004600  3.300000
-0.005300  3.000000
-0.003800  3.300000
-0.001500  3.000000
0.000700  3.200000
0.000000  3.000000
-0.000800  3.300000
-0.000800  3.100000
-0.000800  3.100000
-0.002300  3.200000
-0.000800  3.000000
0.000000  3.100000
0.000700  3.100000
0.001500  3.000000
0.000000  3.000000
0.001500  3.000000
0.001500  2.800000
0.000700  3.100000
0.000700  2.700000
-0.003800  3.100000
-0.003800  2.900000
-0.003000  2.800000
-0.000800  3.000000
0.000000  2.700000
-0.001500  3.000000
0.000000  2.500000
0.000700  3.000000
-0.000800  2.600000
0.000000  2.700000
0.000700  2.600000
-0.001500  2.700000
-0.001500  2.700000
0.000000  2.700000
0.000700  2.700000
0.000000  2.600000
0.000000  2.700000
-0.000800  2.400000
-0.002300  2.700000
-0.003000  2.200000
-0.002300  2.700000
-0.003000  2.300000
-0.002300  2.500000
-0.001500  2.400000
-0.003000  2.400000
-0.005300  2.500000
-0.005300  2.400000
-0.004600  2.300000
-0.003000  2.400000
-0.003000  2.100000
-0.000800  2.200000
-0.000800  2.300000
-0.000800  2.300000
-0.000800  2.400000
-0.001500  2.000000
-0.001500  2.200000
-0.000800  2.000000
0.000700  2.000000
-0.000800  2.200000
0.001500  2.100000
0.003000  2.200000
0.001500  2.100000
0.004500  1.900000
0.004500  2.100000
0.004500  2.000000
0.003000  1.700000
0.000000  2.100000
-0.000800  1.800000
-0.003000  2.000000
-0.004600  1.500000
-0.005300  2.100000
-0.004600  1.700000
-0.003800  1.800000
-0.003800  2.000000
-0.003800  1.700000
-0.003800  1.900000
-0.002300  1.800000
-0.001500  1.800000
-0.000800  1.900000
-0.002300  1.700000
0.000000  1.600000
-0.001500  2.000000
-0.003000  1.500000
-0.000800  1.800000
-0.003000  1.800000
-0.003000  1.700000
-0.002300  1.800000
-0.000800  1.500000
-0.000800  2.100000
-0.000800  1.500000
-0.001500  1.900000
-0.001500  1.500000
-0.001500  1.800000
-0.003000  1.600000
-0.001500  1.600000
0.000700  1.600000
-0.001500  1.800000
0.000000  1.800000
-0.001500  1.500000
-0.004600  1.800000
-0.003000  1.400000
-0.001500  1.700000
0.000700  1.500000
0.000700  1.800000
0.001500  1.400000
-0.001500  1.700000
-0.004600  1.500000
-0.002300  1.500000
-0.002300  1.700000
-0.001500  1.600000
-0.002300  1.800000
-0.000800  1.400000
0.000000  1.500000
0.000700  1.500000
0.001500  1.600000
0.001500  1.300000
0.000000  1.800000
0.000000  1.500000
0.000700  1.600000
-0.000800  1.600000
0.000700  1.300000
0.001500  1.600000
0.000700  1.200000
0.000700  1.800000
-0.000800  1.300000
0.000700  1.300000
0.002200  1.500000
0.003700  1.400000
0.004500  1.300000
0.003700  1.600000
0.000700  1.400000
-0.001500  1.400000
-0.002300  1.400000
-0.004600  1.400000
-0.004600  1.400000
-0.003000  1.200000
-0.003000  1.400000
-0.005300  1.300000
-0.006000  1.300000
-0.003000  1.300000
-0.003000  1.300000
-0.002300  1.400000
0.001500  1.300000
0.004500  1.300000
0.003700  1.300000
0.000700  1.200000
-0.001500  1.100000
-0.003000  1.200000
-0.004600  0.900000
-0.004600  1.400000
-0.003000  0.900000
-0.003000  1.300000
-0.002300  1.000000
-0.002300  1.200000
-0.001500  1.100000
-0.001500  1.000000
-0.001500  1.300000
-0.001500  0.900000
-0.003000  0.900000
-0.003000  0.900000
-0.000800  1.200000
-0.000800  0.700000
0.000700  1.100000
0.000000  0.900000
-0.003000  0.900000
-0.000800  0.700000
0.000000  0.900000
0.000000  0.800000
-0.001500  0.700000
-0.000800  0.900000
-0.000800  0.500000
-0.000800  0.900000
-0.001500  0.600000
-0.004600  0.500000
-0.003800  0.700000
-0.003000  0.600000
-0.000800  0.300000
0.001500  0.400000
0.001500  0.300000
-0.000800  0.400000
-0.003000  0.400000
-0.000800  0.200000
-0.000800  0.400000
-0.000800  0.000000
0.001500  0.100000
0.002200  -0.200000
0.000000  0.100000
-0.001500  -0.300000
-0.001500  -0.200000
-0.003000  -0.300000
-0.002300  -0.500000
-0.002300  -0.500000
-0.004600  -0.300000
-0.003000  -0.600000
-0.000800  -0.400000
0.000000  -0.600000
-0.000800  -0.800000
0.000000  -0.700000
0.001500  -0.900000
0.001500  -0.900000
0.001500  -1.100000
0.003000  -1.100000
0.003700  -1.300000
0.003000  -1.500000
0.002200  -1.400000
0.001500  -1.400000
0.003000  -1.500000
0.003000  -1.800000
0.003000  -1.800000
0.001500  -1.900000
-0.000800  -1.700000
-0.001500  -2.200000
-0.003800  -1.800000
-0.003000  -2.300000
-0.003000  -2.200000
-0.005300  -2.400000
-0.004600  -2.300000
-0.003800  -2.600000
-0.004600  -2.700000
-0.000800  -2.600000
0.001500  -2.700000
0.002200  -3.000000
0.001500  -3.100000
-0.000800  -3.200000
-0.000800  -3.400000
0.000700  -3.200000
-0.003000  -3.600000
-0.004600  -3.400000
-0.005300  -3.700000
-0.005300  -3.700000
-0.004600  -3.800000
-0.005300  -3.900000
-0.004600  -3.900000
-0.003800  -4.300000
-0.003000  -3.900000
-0.000800  -4.400000
-0.000800  -4.400000
0.000000  -4.400000
-0.000800  -4.500000
0.001500  -4.700000
0.003000  -4.700000
0.001500  -4.600000
0.001500  -5.000000
0.001500  -5.000000
0.001500  -5.300000
0.000700  -5.100000
-0.003000  -5.500000
-0.002300  -5.200000
0.000700  -5.700000
-0.000800  -5.600000
0.000700  -5.800000
0.000700  -6.000000
0.000000  -5.800000
-0.000800  -6.000000
-0.004600  -6.200000
-0.004600  -6.300000
-0.003000  -6.500000
-0.002300  -6.500000
-0.003000  -6.400000
-0.004600  -6.800000
-0.006000  -6.700000
-0.008300  -7.100000
-0.009100  -7.100000
-0.008300  -7.200000
-0.006800  -7.400000
-0.006000  -7.200000
-0.005300  -7.700000
-0.004600  -7.600000
-0.006000  -8.000000
-0.004600  -8.000000
-0.002300  -8.000000
-0.001500  -8.300000
-0.000800  -8.600000
-0.000800  -8.400000
-0.003000  -8.800000
-0.001500  -8.600000
-0.001500  -9.100000
-0.000800  -8.800000
0.000700  -9.200000
0.000700  -9.300000
0.003000  -9.300000
0.006000  -9.600000
0.006000  -9.500000
0.006700  -10.000000
0.009000  -10.000000
0.008200  -10.200000
0.006700  -10.300000
0.003000  -10.400000
0.000700  -10.400000
0.001500  -10.800000
0.000700  -10.700000
0.000000  -11.200000
-0.000800  -11.200000
0.000700  -11.500000
0.001500  -11.600000
-0.000800  -11.700000
-0.000800  -12.200000
-0.000800  -12.000000
0.000700  -12.500000
0.003000  -12.300000
0.001500  -12.800000
0.000700  -12.900000
0.000700  -13.000000
-0.003000  -13.400000
-0.003800  -13.600000
-0.004600  -13.700000
-0.006800  -14.000000
-0.007500  -14.300000
-0.008300  -14.400000
-0.008300  -14.900000
-0.009100  -14.900000
-0.009800  -15.200000
-0.008300  -15.200000
-0.006800  -15.900000
-0.008300  -15.800000
-0.007500  -16.200000
-0.006000  -16.500000
-0.003000  -16.900000
-0.003000  -17.000000
-0.000800  -17.600000
0.000000  -17.500000
-0.001500  -17.900000
-0.001500  -18.200000
-0.003000  -18.500000
-0.002300  -19.000000
-0.003000  -19.000000
-0.003000  -19.800000
-0.005300  -19.700000
-0.003800  -20.100000
-0.005300  -20.400000
-0.007500  -20.600000
-0.005300  -21.200000
-0.008300  -21.400000
-0.009100  -21.600000
-0.009800  -22.000000
-0.011300  -22.200000
-0.011300  -22.600000
-0.013500  -23.000000
-0.012800  -23.100000
-0.010500  -23.800000
-0.006000  -23.700000
-0.000800  -24.300000
0.006000  -24.300000
0.009700  -24.900000
0.009000  -24.900000
0.009000  -25.400000
0.006700  -25.700000
0.007500  -25.800000
0.009000  -26.200000
0.011200  -26.700000
0.009700  -26.800000
0.005200  -27.300000
0.005200  -27.800000
0.005200  -27.600000
0.004500  -28.300000
0.001500  -28.000000
0.002200  -28.800000
0.003000  -28.800000
0.003000  -29.300000
0.003700  -29.500000
0.005200  -29.700000
0.006000  -30.100000
0.006700  -30.200000
0.006000  -30.900000
0.004500  -31.000000
0.005200  -31.100000
0.006700  -31.300000
0.006700  -31.600000
0.005200  -32.000000
0.005200  -32.400000
0.004500  -32.400000
0.006700  -32.900000
0.004500  -33.000000
0.000700  -33.200000
-0.000800  -33.400000
0.000700  -33.300000
0.000700  -33.800000
-0.000800  -33.900000
0.000000  -34.400000
-0.001500  -34.200000
-0.001500  -34.700000
-0.001500  -34.900000
-0.004600  -35.200000
-0.002300  -35.100000
0.001500  -35.600000
-0.000800  -35.500000
0.000700  -35.900000
0.000700  -36.000000
-0.003000  -36.300000
-0.006000  -36.400000
-0.008300  -36.600000
-0.006800  -37.000000
-0.006800  -37.000000
-0.008300  -37.600000
-0.009100  -37.500000
-0.006800  -38.000000
-0.006800  -38.100000
-0.006000  -38.200000
-0.005300  -38.500000
-0.005300  -38.800000
-0.005300  -38.800000
-0.004600  -39.400000
-0.003800  -39.500000
-0.004600  -39.900000
-0.001500  -40.100000
-0.001500  -40.200000
-0.003000  -40.800000
-0.001500  -40.800000
-0.001500  -41.400000
0.000700  -41.300000
0.000000  -42.000000
-0.001500  -42.100000
-0.001500  -42.200000
0.000000  -42.600000
0.000700  -43.000000
0.000700  -43.300000
0.001500  -43.700000
0.000700  -43.800000
0.000700  -44.100000
0.003700  -44.400000
0.003700  -44.400000
0.004500  -45.100000
0.003000  -44.900000
0.003000  -45.600000
0.002200  -45.400000
0.002200  -45.900000
0.001500  -45.800000
0.001500  -46.200000
0.000700  -46.400000
0.000000  -46.500000
0.000000  -46.700000
-0.000800  -47.000000
-0.000800  -47.000000
-0.000800  -47.300000
-0.003000  -47.300000
-0.000800  -47.600000
0.000700  -47.700000
-0.001500  -47.900000
-0.001500  -48.100000
-0.001500  -48.000000
0.000000  -48.500000
0.000000  -48.400000
-0.000800  -48.600000
-0.001500  -48.800000
-0.001500  -48.900000
-0.001500  -49.100000
-0.001500  -49.300000
-0.001500  -49.100000
-0.003000  -49.400000
-0.003000  -49.600000
-0.000800  -49.400000
0.000700  -49.900000
-0.000800  -49.600000
-0.003800  -50.100000
-0.003000  -49.900000
-0.001500  -50.200000
-0.000800  -50.000000
0.000000  -50.200000
-0.001500  -50.400000
-0.000800  -50.500000
0.000700  -50.600000
0.000000  -50.700000
0.000000  -50.800000
-0.001500  -51.000000
0.000700  -51.300000
0.003000  -51.000000
0.003000  -51.600000
0.002200  -51.200000
0.002200  -51.600000
0.000700  -51.600000
-0.000800  -51.800000
-0.001500  -52.100000
-0.000800  -51.800000
0.001500  -52.300000
0.003000  -52.000000
0.000700  -52.200000
0.000700  -52.400000
0.000700  -52.300000
-0.002300  -52.500000
-0.000800  -52.500000
0.000700  -52.700000
-0.001500  -52.600000
-0.001500  -53.000000
-0.001500  -52.600000
-0.002300  -53.100000
-0.001500  -52.800000
-0.000800  -53.200000
-0.000800  -53.000000
0.000000  -53.300000
-0.000800  -53.100000
-0.000800  -53.200000
-0.003000  -53.400000
-0.000800  -53.400000
0.000000  -53.300000
0.000000  -53.300000
0.001500  -53.400000
-0.000800  -53.200000
-0.001500  -53.200000
-0.000800  -53.100000
-0.000800  -53.400000
-0.001500  -53.200000
-0.001500  -53.500000
-0.001500  -53.200000
-0.002300  -53.200000
-0.001500  -53.600000
-0.000800  -53.100000
-0.003000  -53.500000
-0.003800  -53.200000
-0.004600  -53.100000
-0.005300  -53.100000
-0.005300  -53.100000
-0.008300  -52.900000
-0.009800  -53.100000
-0.009100  -52.700000
-0.006000  -53.000000
-0.005300  -52.500000
-0.003000  -52.700000
-0.002300  -52.500000
-0.001500  -52.500000
-0.001500  -52.500000
-0.003800  -52.200000
-0.000800  -52.400000
-0.000800  -52.000000
-0.000800  -52.100000
0.000700  -52.100000
0.003000  -52.000000
0.003000  -51.800000
0.001500  -52.000000
0.000700  -51.600000
0.001500  -51.800000
0.000700  -51.600000
-0.000800  -51.400000
0.003000  -51.600000
0.001500  -51.200000
0.000700  -51.400000
0.003000  -50.800000
0.002200  -51.100000
0.000700  -50.700000
-0.001500  -50.800000
-0.001500  -50.700000
0.000000  -50.600000
0.000700  -50.500000
-0.000800  -50.400000
-0.000800  -50.400000
-0.001500  -49.900000
-0.002300  -50.200000
-0.001500  -49.600000
0.000000  -49.900000
0.000700  -49.400000
0.000700  -49.600000
0.000700  -49.300000
0.001500  -49.200000
0.000700  -49.200000
0.003000  -48.900000
0.003000  -48.800000
0.001500  -48.800000
0.001500  -48.600000
0.000000  -48.400000
0.000700  -48.100000
0.000700  -48.000000
0.000700  -47.900000
0.000700  -47.600000
-0.000800  -47.700000
-0.002300  -47.300000
-0.001500  -47.200000
-0.000800  -47.300000
-0.001500  -46.800000
-0.001500  -46.900000
-0.003000  -46.200000
-0.002300  -46.500000
-0.000800  -46.000000
0.000000  -46.000000
0.000700  -45.900000
-0.000800  -45.500000
-0.001500  -45.300000
-0.003000  -45.400000
-0.001500  -44.900000
-0.000800  -45.000000
-0.002300  -44.500000
-0.001500  -44.400000
-0.003000  -44.100000
-0.003000  -43.800000
-0.001500  -43.800000
-0.004600  -43.400000
-0.005300  -43.400000
-0.002300  -42.800000
-0.003800  -42.700000
-0.005300  -42.500000
-0.004600  -42.200000
-0.001500  -41.900000
-0.002300  -41.700000
-0.001500  -41.200000
-0.000800  -41.100000
-0.002300  -40.900000
-0.000800  -40.600000
-0.001500  -40.500000
-0.001500  -39.900000
-0.000800  -39.900000
0.000700  -39.200000
0.000000  -39.300000
-0.000800  -38.900000
0.000000  -38.600000
0.000700  -38.400000
0.001500  -38.100000
0.001500  -37.800000
0.000700  -37.500000
0.000700  -37.200000
-0.001500  -36.600000
-0.003800  -36.800000
-0.003800  -36.200000
-0.001500  -36.200000
-0.002300  -35.600000
-0.002300  -35.500000
-0.000800  -35.200000
-0.001500  -34.800000
-0.000800  -34.800000
-0.001500  -34.200000
-0.002300  -34.300000
-0.001500  -33.700000
-0.001500  -33.400000
-0.000800  -33.000000
-0.001500  -32.700000
-0.000800  -32.600000
-0.000800  -32.300000
-0.000800  -32.000000
-0.001500  -31.500000
-0.003000  -31.600000
-0.000800  -31.000000
-0.003000  -31.100000
-0.001500  -30.400000
-0.003800  -30.400000
-0.005300  -29.700000
-0.001500  -29.700000
-0.004600  -29.200000
-0.001500  -28.900000
-0.001500  -28.700000
-0.003000  -28.400000
-0.003000  -28.000000
-0.002300  -27.800000
-0.001500  -27.500000
-0.003000  -27.000000
-0.003000  -27.000000
-0.003000  -26.400000
-0.003800  -26.100000
-0.002300  -25.700000
-0.000800  -25.500000
-0.001500  -25.200000
-0.001500  -24.800000
-0.002300  -24.800000
-0.003000  -24.100000
-0.002300  -24.200000
-0.003000  -23.500000
-0.003000  -23.100000
-0.003800  -22.900000
-0.003000  -22.700000
-0.004600  -22.100000
-0.001500  -22.100000
-0.001500  -21.300000
-0.004600  -21.300000
-0.000800  -20.700000
0.000700  -20.400000
-0.000800  -20.200000
0.000700  -19.700000
-0.000800  -19.600000
-0.003000  -18.900000
-0.003800  -18.900000
-0.004600  -18.500000
-0.005300  -18.100000
-0.004600  -17.800000
-0.003800  -17.300000
-0.003000  -17.000000
-0.001500  -16.800000
0.000000  -16.300000
0.000700  -15.900000
0.000000  -15.600000
0.000000  -15.200000
0.001500  -15.100000
0.001500  -14.300000
0.005200  -14.300000
0.004500  -13.700000
-0.000800  -13.500000
-0.000800  -13.100000
0.000000  -12.600000
0.000700  -12.500000
-0.001500  -12.000000
-0.001500  -11.800000
-0.003000  -11.300000
-0.003800  -11.300000
-0.006800  -10.400000
-0.003000  -10.600000
0.000700  -9.700000
0.000700  -9.800000
0.003000  -9.200000
0.000700  -9.000000
-0.001500  -8.600000
-0.005300  -8.300000
-0.009100  -8.100000
-0.009800  -7.700000
-0.006800  -7.400000
-0.001500  -7.100000
0.003700  -6.600000
0.011200  -6.300000
0.018700  -6.100000
0.018000  -5.500000
0.011200  -5.300000
0.000700  -4.900000
-0.010500  -4.500000
-0.018800  -4.500000
-0.024000  -3.700000
-0.019500  -3.900000
-0.012800  -3.000000
-0.008300  -2.900000
-0.001500  -2.300000
0.011200  -2.200000
0.023200  -1.900000
0.029200  -1.400000
0.035200  -1.000000
0.034500  -0.800000
0.028500  -0.300000
0.018700  -0.100000
0.003000  0.100000
-0.007500  0.700000
-0.012000  0.800000
-0.008300  1.300000
-0.008300  1.500000
-0.012800  1.800000
-0.015800  2.200000
-0.009100  2.200000
0.005200  2.700000
0.012000  2.700000
0.009000  3.200000
0.008200  3.200000
0.009000  3.300000
0.000700  3.700000
-0.004600  4.000000
-0.009800  4.000000
-0.019500  4.500000
-0.030800  4.300000
-0.031500  4.600000
-0.022500  4.700000
-0.019500  4.800000
-0.011300  5.100000
-0.004600  5.100000
-0.000800  5.400000
0.005200  5.200000
0.003000  5.600000
-0.001500  5.600000
0.001500  5.800000
0.006700  5.800000
0.008200  5.900000
0.011200  5.600000
0.016500  6.000000
0.022500  5.900000
0.024000  5.900000
0.016500  6.200000
0.006700  5.900000
-0.002300  6.400000
-0.013500  5.900000
-0.025600  6.400000
-0.038300  6.100000
-0.048000  6.500000
-0.047300  6.200000
-0.042000  6.100000
-0.026300  6.300000
-0.005300  6.200000
0.010500  6.300000
0.019500  6.200000
0.022500  6.300000
0.027000  5.800000
0.027000  6.300000
0.018000  5.900000
0.005200  6.000000
-0.004600  5.900000
-0.027800  6.000000
-0.042800  5.900000
-0.045000  5.800000
-0.046500  6.200000
-0.031500  5.800000
-0.010500  5.800000
0.017200  5.800000
0.036700  5.800000
0.039000  5.600000
0.037500  5.600000
0.025500  5.300000
0.007500  5.500000
-0.005300  5.400000
0.000700  5.300000
0.003700  5.300000
-0.001500  5.000000
0.008200  5.300000
0.006700  4.900000
0.006700  5.300000
0.011200  4.900000
0.004500  4.900000
0.002200  4.900000
-0.001500  4.800000
0.000700  4.700000
0.006000  4.700000
0.014200  4.400000
0.012700  4.700000
0.006000  4.400000
0.005200  4.400000
-0.017300  4.300000
-0.033000  4.000000
-0.024800  4.100000
-0.017300  3.900000
-0.009100  3.900000
-0.003000  3.800000
-0.001500  3.600000
-0.000800  3.600000
-0.006000  3.400000
0.000700  3.400000
0.021000  3.300000
0.031500  3.000000
0.031500  3.000000
0.027700  2.900000
0.024000  2.600000
0.019500  2.700000
0.005200  2.300000
-0.012800  2.500000
-0.019500  2.100000
-0.022500  2.100000
-0.015800  1.800000
-0.012000  1.700000
-0.024000  1.400000
-0.031500  1.300000
-0.030000  1.300000
-0.020300  1.100000
-0.005300  0.900000
-0.000800  0.700000
-0.001500  0.900000
0.015700  0.300000
0.038200  0.800000
0.039000  0.500000
0.029200  0.800000
0.017200  0.600000
0.008200  0.500000
-0.006800  0.700000
-0.012800  0.500000
-0.012800  0.900000
-0.027000  0.700000
-0.021800  0.900000
-0.005300  0.900000
0.005200  1.000000
0.008200  0.900000
0.006700  1.000000
-0.001500  0.900000
-0.027000  1.000000
-0.048800  1.000000
-0.042000  0.900000
-0.026300  1.000000
-0.016500  0.500000
-0.003000  0.900000
0.018000  0.400000
0.046500  0.600000
0.053200  0.100000
0.042700  0.100000
0.033700  -0.200000
0.003000  -0.200000
-0.029300  -0.400000
-0.032300  -0.500000
-0.027800  -0.800000
-0.031500  -0.900000
-0.039000  -1.000000
-0.024800  -1.400000
-0.002300  -1.400000
0.012700  -1.600000
0.020200  -1.900000
0.024000  -2.000000
0.034500  -2.300000
0.038200  -2.200000
0.031500  -2.700000
0.014200  -2.400000
0.000700  -3.100000
-0.011300  -3.000000
-0.014300  -3.100000
-0.015800  -3.100000
-0.016500  -3.400000
-0.012000  -3.200000
-0.012800  -3.800000
-0.014300  -3.600000
-0.017300  -4.000000
-0.019500  -3.800000
-0.019500  -3.900000
-0.020300  -4.200000
-0.021000  -4.000000
-0.014300  -4.300000
-0.009800  -4.200000
-0.009100  -4.200000
-0.009800  -4.200000
-0.015800  -4.200000
-0.021000  -4.100000
-0.012800  -4.200000
0.011200  -4.000000
0.031500  -4.000000
0.046500  -4.100000
0.046500  -3.600000
0.039700  -4.000000
0.032200  -3.400000
0.015700  -3.600000
0.018700  -3.300000
0.030000  -3.400000
0.030700  -3.100000
0.020200  -3.000000
0.012000  -3.000000
0.013500  -2.700000
0.018000  -2.700000
0.014200  -2.400000
-0.000800  -2.300000
-0.018800  -2.200000
-0.030800  -2.200000
-0.024000  -1.800000
-0.018800  -2.100000
-0.021000  -1.400000
-0.017300  -1.600000
-0.019500  -1.600000
-0.015000  -1.400000
-0.007500  -1.400000
-0.006800  -1.000000
-0.004600  -1.200000
-0.006000  -0.900000
-0.005300  -1.200000
-0.005300  -0.900000
-0.004600  -1.000000
-0.002300  -0.800000
0.000000  -0.900000
0.000700  -0.800000
-0.000800  -0.800000
-0.005300  -0.600000
-0.015000  -0.600000
-0.018100  -0.900000
-0.015000  -0.500000
-0.013500  -1.000000
-0.006800  -0.500000
0.002200  -1.000000
0.014200  -0.600000
0.024000  -0.800000
0.025500  -1.000000
0.022500  -0.900000
0.015700  -0.900000
0.005200  -0.900000
-0.004600  -1.000000
-0.010500  -1.100000
-0.008300  -1.100000
-0.006800  -1.200000
-0.007500  -1.400000
-0.005300  -1.200000
-0.005300  -1.500000
-0.005300  -1.400000
-0.006000  -1.500000
-0.005300  -1.600000
-0.006800  -1.600000
-0.005300  -1.800000
-0.004600  -1.500000
-0.006800  -1.700000
-0.005300  -2.000000
-0.005300  -1.900000
-0.006800  -1.900000
-0.008300  -2.000000
-0.009100  -1.800000
-0.008300  -2.100000
-0.010500  -1.800000
-0.010500  -2.200000
-0.008300  -1.800000
-0.005300  -2.100000
-0.001500  -1.900000
-0.000800  -1.900000
-0.001500  -2.000000
-0.003000  -1.700000
-0.003000  -2.100000
0.000000  -1.800000
0.000700  -1.800000
0.000700  -1.600000
0.001500  -1.800000
0.000000  -1.400000
0.001500  -1.800000
0.003000  -1.400000
0.005200  -1.400000
0.010500  -1.500000
0.009000  -1.300000
0.006700  -1.500000
0.004500  -1.100000
0.003000  -1.400000
0.001500  -1.000000
0.001500  -1.300000
0.003700  -1.200000
0.004500  -1.000000
0.004500  -1.000000
0.001500  -0.900000
0.000700  -0.800000
0.000700  -0.600000
0.000700  -1.000000
0.000700  -0.600000
-0.001500  -0.900000
-0.000800  -0.500000
-0.000800  -0.800000
-0.000800  -0.700000
0.000700  -0.700000
-0.002300  -0.600000
-0.001500  -0.500000
-0.000800  -0.600000
0.001500  -0.400000
0.002200  -0.500000
0.000700  -0.400000
-0.000800  -0.500000
-0.000800  -0.400000
0.002200  -0.500000
0.003000  -0.300000
0.001500  -0.500000
0.002200  -0.400000
0.003000  -0.400000
0.003000  -0.600000
0.001500  -0.400000
0.000700  -0.700000
-0.001500  -0.200000
-0.003000  -0.600000
-0.000800  -0.500000
-0.002300  -0.400000
-0.003800  -0.500000
-0.003800  -0.600000
-0.005300  -0.500000
-0.006000  -0.500000
-0.006800  -0.300000
-0.004600  -0.500000
-0.003800  -0.400000
-0.003800  -0.200000
-0.001500  -0.500000
-0.000800  -0.100000
0.000700  -0.100000
0.000700  -0.200000
0.003000  0.000000
-0.001500  -0.300000
-0.005300  -0.200000
-0.003000  -0.500000
-0.004600  -0.300000
-0.000800  -0.200000
-0.000800  -0.200000
-0.003000  -0.300000
-0.002300  -0.100000
-0.004600  -0.400000
-0.001500  0.200000
0.000000  -0.300000
-0.003000  -0.100000
-0.003000  -0.200000
0.000000  0.000000
-0.000800  0.000000
-0.002300  -0.300000
-0.003000  0.000000
-0.003800  0.000000
-0.003000  0.100000
-0.002300  0.000000
-0.001500  0.000000
-0.001500  0.100000
-0.003000  0.300000
-0.001500  0.000000
-0.000800  0.200000
0.000000  0.200000
-0.000800  0.200000
0.000000  0.300000
0.000700  0.300000
-0.001500  0.500000
-0.003000  0.200000
-0.003800  0.600000
-0.002300  0.200000
-0.000800  0.600000
-0.002300  0.400000
-0.001500  0.500000
-0.000800  0.600000
0.000700  0.600000
0.000000  0.600000
-0.000800  0.500000
-0.000800  0.800000
-0.000800  0.600000
-0.000800  0.900000
-0.003000  0.600000
-0.001500  1.000000
-0.002300  0.700000
-0.003800  1.100000
-0.002300  0.800000
-0.001500  1.200000
-0.000800  1.000000
0.000700  1.000000
0.000700  1.200000
-0.000800  1.200000
-0.000800  1.200000
-0.001500  1.300000
-0.001500  1.400000
-0.002300  1.300000
-0.003800  1.500000
-0.002300  1.300000
-0.003000  1.500000
-0.000800  1.700000
0.000700  1.700000
0.000000  1.900000
0.000000  1.600000
0.000000  1.900000
0.000700  1.600000
-0.000800  1.800000
-0.001500  1.800000
0.000700  2.000000
-0.000800  1.800000
-0.003000  2.000000
-0.001500  1.800000
-0.001500  2.200000
-0.001500  1.800000
-0.003800  2.200000
-0.005300  1.800000
-0.004600  2.200000
-0.003800  1.900000
-0.004600  2.200000
-0.003000  2.200000
-0.002300  2.100000
-0.003000  2.200000
-0.003800  2.200000
-0.005300  2.200000
-0.006000  2.000000
-0.004600  2.200000
-0.002300  2.100000
-0.000800  2.400000
-0.000800  2.100000
-0.001500  2.500000
-0.000800  2.100000
0.000700  2.200000
0.000700  2.300000
0.001500  2.300000
0.002200  2.400000
0.002200  2.200000
0.002200  2.500000
0.000700  2.100000
0.000700  2.400000
0.001500  2.400000
0.003000  2.300000
0.006700  2.200000
0.003700  2.500000
0.003000  2.300000
0.004500  2.400000
0.003000  2.400000
0.003000  2.300000
0.003000  2.700000
0.006700  2.300000
0.005200  2.600000
0.001500  2.300000
0.000700  2.600000
0.000700  2.400000
0.000000  2.600000
-0.003000  2.500000
-0.003000  2.500000
-0.001500  2.500000
-0.001500  2.600000
0.002200  2.600000
0.004500  2.400000
0.003000  2.600000
0.000700  2.300000
-0.001500  2.700000
0.003000  2.400000
0.004500  2.500000
0.003000  2.600000
0.001500  2.300000
0.001500  2.700000
0.001500  2.300000
0.000700  2.700000
0.000700  2.600000
-0.000800  2.500000
-0.001500  2.200000
-0.002300  2.400000
-0.003000  2.200000
-0.003000  2.600000
-0.000800  2.200000
-0.002300  2.500000
-0.000800  2.100000
-0.000800  2.400000
-0.003000  2.300000
-0.000800  2.200000
-0.000800  2.400000
-0.003000  2.200000
-0.003000  2.400000
-0.000800  2.300000
-0.000800  2.300000
-0.000800  2.200000
-0.001500  2.200000
-0.001500  2.100000
-0.003000  2.200000
-0.004600  1.900000
-0.003800  2.100000
-0.004600  2.100000
-0.003000  1.900000
-0.002300  2.200000
-0.004600  1.800000
-0.005300  2.300000
-0.001500  1.800000
-0.000800  2.200000
0.000700  1.800000
0.003000  1.900000
0.005200  2.000000
0.003000  2.000000
-0.001500  2.100000
-0.000800  1.900000
-0.002300  2.100000
-0.004600  1.900000
-0.003000  2.100000
-0.003000  1.600000
-0.003000  2.200000
0.001500  1.600000
-0.000800  2.000000
-0.004600  1.600000
-0.001500  1.800000
-0.001500  1.800000
-0.003000  1.600000
-0.002300  1.800000
-0.002300  1.500000
-0.001500  1.500000
-0.003800  1.500000
-0.005300  1.600000
-0.004600  1.400000
-0.001500  1.600000
-0.000800  1.600000
-0.001500  1.400000
-0.001500  1.500000
-0.000800  1.300000
0.001500  1.500000
0.001500  1.100000
0.001500  1.600000
0.001500  1.100000
0.001500  1.500000
0.001500  1.300000
-0.000800  1.300000
0.002200  1.300000
0.003000  1.300000
0.000700  1.200000
-0.002300  1.300000
-0.002300  1.100000
-0.003000  1.200000
-0.001500  1.200000
-0.001500  1.200000
-0.002300  1.400000
0.002200  1.000000
0.000700  1.200000
-0.000800  1.100000
-0.001500  1.200000
-0.003000  1.300000
-0.004600  1.100000
-0.006800  1.200000
-0.003000  1.100000
-0.003000  1.200000
-0.003000  1.100000
-0.004600  1.300000
-0.006000  0.900000
-0.006800  1.300000
-0.005300  0.900000
-0.005300  1.200000
-0.002300  0.900000
-0.001500  1.000000
-0.003000  1.300000
-0.002300  0.900000
-0.002300  1.100000
-0.001500  1.100000
0.000700  0.900000
0.000700  1.000000
0.000000  1.100000
0.000700  0.900000
0.000700  1.100000
-0.000800  0.900000
0.000700  1.000000
-0.000800  0.900000
-0.000800  0.900000
-0.001500  1.100000
-0.003000  0.800000
-0.002300  1.200000
-0.001500  0.800000
0.000700  0.900000
-0.000800  0.800000
0.000000  0.900000
-0.000800  1.000000
0.000700  1.000000
0.000700  0.900000
-0.000800  0.900000
0.000700  1.000000
-0.002300  0.700000
-0.001500  1.000000
-0.002300  0.700000
-0.001500  1.000000
-0.001500  0.600000
0.000700  0.900000
0.003000  0.800000
-0.001500  0.800000
-0.003000  0.900000
-0.004600  0.700000
-0.004600  1.000000
-0.003800  0.700000
-0.003000  0.900000
-0.003000  0.900000
