File Name: 14gait.log
Channel 3: 'Vasto Medial', 25302 values, engineering units: mV, no filters.
Channel 5: 'Flexo', 25302 values, engineering units: deg, no filters.
Digitals combined (event=16, d=8, c=4, b=2, a=1): 25302 values, .
-0.000800  78.700000
-0.000800  78.500000
-0.003000  78.700000
-0.000800  78.600000
0.000700  78.700000
-0.000800  78.500000
0.000000  78.700000
0.000000  78.700000
0.000700  78.500000
-0.000800  78.500000
-0.000800  78.800000
-0.001500  78.600000
-0.001500  78.500000
-0.000800  78.900000
-0.000800  78.700000
-0.000800  78.500000
-0.001500  78.600000
-0.000800  78.800000
-0.003000  78.700000
0.000000  78.700000
0.000000  78.500000
-0.000800  78.600000
-0.000800  78.300000
0.000700  78.900000
0.001500  78.400000
0.000000  78.600000
0.000000  78.700000
0.000000  78.500000
-0.001500  79.000000
0.000700  78.500000
0.000700  78.700000
0.002200  78.700000
0.001500  78.500000
0.000000  78.600000
0.000000  78.700000
0.000700  78.700000
0.000700  78.700000
0.000000  78.600000
0.000700  78.800000
-0.000800  78.300000
0.000000  78.700000
-0.000800  78.600000
-0.001500  78.600000
-0.000800  78.900000
-0.001500  78.700000
-0.000800  78.700000
-0.001500  78.800000
-0.000800  78.300000
-0.001500  78.900000
0.000000  78.700000
0.003000  78.700000
0.000700  78.700000
0.000000  78.700000
0.000700  78.700000
0.001500  78.600000
-0.000800  78.700000
-0.000800  78.700000
-0.001500  78.400000
-0.001500  79.000000
0.000700  78.600000
0.000000  78.700000
-0.001500  78.700000
-0.000800  78.500000
0.001500  78.700000
0.000700  78.500000
0.000000  78.600000
0.000700  78.700000
-0.001500  78.700000
-0.000800  78.700000
0.001500  78.500000
0.001500  78.700000
0.000700  78.600000
-0.000800  78.400000
-0.001500  78.700000
-0.000800  78.500000
-0.000800  78.600000
-0.002300  78.700000
-0.000800  78.400000
-0.001500  78.700000
-0.002300  78.700000
-0.001500  78.700000
-0.001500  78.500000
-0.000800  78.500000
-0.001500  78.700000
-0.000800  78.600000
0.000000  78.700000
0.000000  78.700000
0.000000  78.500000
0.000000  78.700000
-0.000800  78.700000
-0.001500  78.500000
0.000700  79.000000
0.000000  78.400000
-0.000800  78.700000
0.000000  78.800000
-0.001500  78.700000
-0.001500  78.800000
-0.000800  78.700000
0.000700  78.700000
0.000700  78.600000
-0.000800  78.600000
0.000700  78.700000
0.000000  78.300000
-0.000800  78.800000
0.000000  78.500000
-0.000800  78.600000
0.000700  78.700000
-0.001500  78.400000
-0.003000  78.900000
-0.000800  78.500000
-0.000800  78.700000
-0.001500  78.700000
-0.000800  78.400000
-0.000800  78.500000
-0.000800  78.600000
0.000700  78.500000
0.001500  78.500000
0.000000  78.500000
-0.000800  79.000000
0.000700  78.300000
-0.000800  78.800000
0.000700  78.700000
0.002200  78.400000
0.002200  78.700000
0.001500  78.500000
0.000700  78.500000
0.000000  78.800000
0.001500  78.400000
0.001500  78.600000
0.001500  78.500000
0.000700  78.700000
0.001500  78.800000
0.003000  78.700000
0.001500  78.700000
0.001500  78.500000
0.002200  78.800000
0.001500  78.800000
0.000700  78.500000
0.000700  78.900000
0.000700  78.500000
0.000700  78.600000
0.001500  78.700000
0.000700  78.400000
-0.000800  78.800000
0.001500  78.700000
-0.000800  78.600000
-0.000800  78.500000
-0.000800  78.700000
-0.001500  78.700000
0.000700  78.600000
-0.000800  78.700000
0.000700  78.600000
-0.000800  78.500000
-0.001500  78.800000
-0.000800  78.500000
-0.003000  78.600000
-0.000800  78.700000
-0.000800  78.600000
-0.001500  78.700000
-0.000800  78.700000
-0.000800  78.500000
-0.000800  78.600000
-0.001500  78.700000
-0.001500  78.700000
-0.001500  78.500000
-0.003000  79.000000
-0.001500  78.600000
0.000000  78.700000
0.000700  78.900000
0.000700  78.300000
-0.000800  78.700000
-0.001500  78.700000
0.000000  78.700000
0.000700  78.900000
0.001500  78.400000
0.002200  78.900000
0.000700  78.800000
0.000700  78.700000
0.001500  78.600000
0.001500  78.700000
0.000700  78.700000
0.000700  78.600000
0.000700  78.600000
0.000000  78.800000
0.000700  78.500000
-0.000800  78.900000
-0.001500  78.500000
-0.000800  78.800000
-0.001500  78.800000
-0.001500  78.500000
-0.003000  78.800000
-0.000800  78.500000
-0.000800  78.700000
-0.000800  78.800000
-0.000800  78.700000
-0.001500  78.600000
0.000000  78.500000
0.000700  78.800000
0.000000  78.700000
0.000000  78.600000
0.001500  79.000000
0.001500  78.500000
-0.000800  78.800000
0.000000  78.800000
-0.000800  78.500000
-0.001500  78.900000
-0.000800  78.700000
0.000000  78.700000
-0.000800  78.700000
-0.001500  78.700000
-0.000800  78.700000
-0.001500  78.700000
-0.000800  78.800000
0.000000  78.700000
0.000700  78.600000
0.002200  78.800000
-0.000800  78.600000
-0.000800  78.700000
-0.000800  78.700000
0.000700  78.500000
0.000000  79.100000
0.000700  78.500000
0.000700  78.600000
0.000000  78.700000
-0.000800  78.700000
-0.000800  78.700000
-0.000800  78.700000
-0.000800  78.700000
0.000700  78.600000
0.000700  78.600000
0.000700  78.800000
-0.000800  78.400000
-0.000800  78.800000
0.001500  78.600000
0.002200  78.600000
0.001500  78.900000
-0.000800  78.300000
-0.000800  78.800000
0.000000  78.700000
0.000000  78.500000
0.000000  78.700000
0.000700  78.500000
0.000000  78.600000
-0.002300  78.600000
-0.000800  78.500000
0.000000  78.700000
0.000000  78.600000
-0.001500  79.000000
-0.001500  78.500000
0.000700  78.700000
-0.000800  78.800000
0.000700  78.500000
-0.001500  78.600000
-0.000800  78.700000
-0.000800  78.500000
0.000000  78.800000
0.000000  78.800000
0.000700  78.500000
0.000700  78.600000
0.000700  78.800000
0.000000  78.600000
-0.001500  78.400000
-0.000800  78.700000
-0.001500  78.500000
0.000000  78.700000
0.000700  78.700000
0.000700  78.500000
0.000700  78.900000
-0.000800  78.500000
-0.001500  78.700000
-0.000800  78.800000
-0.000800  78.500000
-0.000800  78.700000
0.000700  78.600000
0.000700  78.600000
0.000700  78.600000
0.000700  78.300000
-0.000800  78.900000
-0.001500  78.400000
-0.000800  78.700000
0.000000  78.700000
0.000000  78.500000
-0.000800  78.800000
-0.001500  78.500000
0.000000  78.700000
-0.001500  78.700000
-0.000800  78.500000
-0.000800  78.700000
0.000700  78.600000
0.001500  78.600000
-0.000800  78.700000
0.000000  78.800000
0.000000  78.700000
0.000700  78.500000
0.000000  78.900000
-0.001500  78.500000
-0.000800  78.700000
-0.000800  78.700000
0.000000  78.500000
0.000000  78.800000
-0.000800  78.600000
0.000700  78.600000
0.000000  78.800000
0.000000  78.500000
-0.000800  78.600000
-0.000800  78.500000
-0.000800  78.600000
-0.000800  78.500000
-0.000800  78.500000
-0.000800  78.700000
0.000700  78.700000
0.000000  78.500000
-0.001500  78.700000
-0.000800  78.300000
0.001500  78.700000
0.000700  78.600000
0.000700  78.700000
0.000700  78.700000
0.000700  78.600000
0.000000  78.700000
0.000700  78.600000
0.001500  78.700000
0.000000  78.700000
-0.000800  78.500000
0.000000  78.800000
-0.000800  78.500000
-0.001500  78.700000
-0.001500  78.800000
-0.001500  78.400000
-0.001500  78.900000
0.000000  78.600000
0.000700  78.500000
-0.000800  78.800000
-0.001500  78.500000
0.000000  78.600000
0.000000  78.700000
-0.001500  78.700000
0.000700  78.600000
-0.000800  78.600000
0.000000  78.800000
0.000700  78.500000
-0.000800  78.800000
-0.001500  78.700000
-0.000800  78.500000
0.000000  78.700000
-0.000800  78.600000
0.000000  78.400000
0.000000  78.700000
-0.000800  78.400000
0.001500  78.800000
0.000700  78.500000
0.000700  78.700000
0.001500  78.700000
0.001500  78.700000
0.000700  78.700000
0.000700  78.500000
0.000700  78.600000
0.000700  78.700000
0.001500  78.500000
0.000700  78.900000
-0.000800  78.400000
0.000000  78.700000
-0.000800  78.600000
-0.000800  78.500000
-0.001500  78.900000
-0.000800  78.500000
0.000700  78.700000
-0.001500  78.700000
0.000000  78.600000
0.000700  78.700000
0.000700  78.600000
0.000000  78.900000
0.000700  78.700000
0.002200  78.700000
0.000000  78.800000
-0.001500  78.300000
-0.000800  78.800000
-0.000800  78.500000
-0.000800  78.500000
-0.001500  78.700000
-0.000800  78.500000
-0.000800  78.500000
-0.000800  78.700000
-0.000800  78.500000
-0.001500  78.700000
-0.000800  78.700000
-0.000800  78.600000
0.000000  78.400000
-0.000800  78.700000
0.000700  78.700000
0.001500  78.400000
0.001500  78.700000
0.003000  78.500000
0.000700  78.400000
0.000000  78.800000
-0.000800  78.300000
-0.003000  78.600000
-0.001500  78.500000
-0.002300  78.600000
-0.000800  78.600000
0.000000  78.500000
0.000700  78.700000
0.000700  78.500000
-0.000800  78.700000
-0.001500  78.700000
-0.000800  78.300000
0.000000  78.900000
0.000700  78.500000
0.000700  78.600000
0.000000  78.900000
0.000000  78.300000
-0.000800  78.700000
-0.000800  78.500000
-0.001500  78.500000
-0.000800  78.700000
0.000700  78.600000
0.001500  78.500000
0.001500  78.700000
0.000700  78.600000
0.000000  78.500000
-0.000800  78.600000
-0.000800  78.700000
0.000000  78.300000
-0.000800  78.700000
-0.000800  78.700000
-0.000800  78.500000
-0.000800  78.700000
-0.000800  78.500000
-0.000800  78.400000
0.000000  78.700000
-0.000800  78.400000
-0.000800  78.500000
-0.000800  78.600000
-0.000800  78.500000
0.000000  78.500000
0.000000  78.500000
-0.000800  78.700000
0.000000  78.500000
0.000700  78.600000
0.002200  78.700000
0.001500  78.300000
0.000000  78.800000
0.001500  78.400000
0.002200  78.600000
0.001500  78.600000
0.000700  78.300000
-0.000800  78.700000
0.000000  78.800000
0.001500  78.600000
0.001500  78.600000
0.001500  78.500000
0.000700  78.800000
0.000000  78.400000
0.000000  78.700000
-0.001500  78.500000
-0.000800  78.500000
0.000000  78.700000
-0.000800  78.400000
-0.000800  78.600000
-0.000800  78.600000
-0.000800  78.400000
-0.000800  78.600000
-0.000800  78.700000
-0.000800  78.500000
0.000000  78.400000
-0.000800  78.500000
0.000700  78.700000
0.001500  78.200000
-0.000800  78.700000
-0.000800  78.500000
-0.000800  78.400000
-0.001500  78.500000
-0.000800  78.400000
-0.000800  78.500000
-0.000800  78.700000
-0.000800  78.300000
0.000000  78.700000
-0.000800  78.500000
0.000000  78.400000
0.000000  78.500000
-0.001500  78.500000
-0.000800  78.700000
-0.000800  78.500000
-0.000800  78.600000
0.000000  78.600000
0.000000  78.600000
-0.000800  78.700000
-0.001500  78.300000
0.000000  78.700000
-0.000800  78.500000
-0.000800  78.400000
0.000700  78.900000
0.000700  78.300000
0.001500  78.800000
0.002200  78.500000
0.001500  78.500000
0.001500  78.500000
-0.000800  78.600000
-0.000800  78.600000
0.000000  78.500000
0.000000  78.500000
0.000700  78.700000
-0.001500  78.200000
-0.000800  78.700000
-0.000800  78.500000
-0.000800  78.400000
0.000000  78.600000
-0.000800  78.400000
0.000000  78.500000
0.002200  78.700000
0.003000  78.500000
0.003000  78.600000
0.001500  78.600000
0.000000  78.500000
-0.000800  78.300000
-0.000800  78.600000
-0.000800  78.500000
-0.000800  78.500000
0.000700  78.600000
0.000700  78.400000
0.000000  78.500000
-0.000800  78.700000
-0.001500  78.300000
-0.001500  78.700000
-0.000800  78.500000
-0.000800  78.300000
-0.001500  78.500000
0.000700  78.700000
0.000000  78.600000
0.000000  78.500000
0.001500  78.500000
0.000000  78.600000
0.000700  78.300000
0.001500  78.800000
0.000000  78.400000
0.000700  78.600000
-0.000800  78.700000
-0.001500  78.300000
-0.000800  78.900000
0.000000  78.400000
0.000700  78.600000
-0.000800  78.700000
-0.000800  78.500000
-0.000800  78.700000
-0.000800  78.500000
0.000700  78.600000
-0.000800  78.500000
-0.000800  78.600000
0.000000  78.600000
-0.000800  78.200000
-0.001500  78.700000
-0.000800  78.400000
-0.000800  78.400000
-0.000800  78.600000
-0.000800  78.500000
-0.001500  78.600000
0.000000  78.600000
0.000000  78.300000
-0.001500  78.400000
-0.000800  78.400000
-0.000800  78.500000
-0.000800  78.500000
0.000000  78.600000
0.000700  78.700000
-0.000800  78.400000
0.000000  78.600000
-0.000800  78.500000
-0.000800  78.300000
0.000700  78.800000
-0.000800  78.300000
-0.001500  78.700000
-0.000800  78.400000
-0.000800  78.600000
-0.001500  78.700000
-0.000800  78.500000
0.000700  78.700000
0.000000  78.500000
0.000700  78.600000
0.000000  78.600000
0.000000  78.300000
-0.000800  78.700000
0.000000  78.400000
-0.001500  78.700000
-0.003000  78.500000
-0.001500  78.500000
-0.000800  78.700000
-0.002300  78.400000
-0.000800  78.600000
-0.000800  78.600000
-0.000800  78.400000
0.000700  78.500000
-0.000800  78.500000
0.001500  78.600000
0.001500  78.500000
-0.000800  78.500000
0.000000  78.700000
0.000700  78.300000
0.000700  78.800000
0.000700  78.500000
0.000700  78.500000
0.001500  78.700000
0.000700  78.500000
0.000000  78.700000
0.000700  78.700000
0.000000  78.400000
0.000000  78.600000
-0.000800  78.500000
0.000700  78.600000
0.000700  78.500000
-0.001500  78.700000
0.000000  78.700000
-0.000800  78.400000
-0.001500  78.700000
-0.000800  78.500000
-0.000800  78.400000
-0.000800  78.700000
-0.000800  78.400000
0.001500  78.700000
0.000000  78.600000
0.000700  78.500000
0.001500  78.700000
0.000000  78.600000
0.001500  78.600000
0.002200  78.500000
0.003000  78.500000
0.002200  78.600000
0.003000  78.300000
0.002200  78.700000
0.001500  78.500000
0.002200  78.500000
0.000700  78.700000
0.000700  78.200000
-0.000800  78.700000
-0.003000  78.400000
-0.000800  78.400000
-0.000800  78.600000
-0.000800  78.400000
0.001500  78.400000
0.000700  78.400000
0.000700  78.700000
-0.000800  78.500000
-0.000800  78.500000
-0.003000  78.700000
-0.002300  78.300000
-0.001500  78.700000
-0.001500  78.600000
-0.000800  78.500000
0.000700  78.700000
0.000700  78.500000
0.001500  78.400000
0.001500  78.700000
-0.000800  78.300000
0.002200  78.900000
0.000700  78.600000
0.000000  78.600000
0.000000  78.500000
0.000000  78.600000
0.000000  78.700000
-0.001500  78.500000
0.000000  78.500000
0.000700  78.700000
0.000700  78.400000
0.000000  78.700000
0.000000  78.300000
0.000700  78.600000
0.001500  78.700000
0.001500  78.300000
-0.000800  78.700000
-0.000800  78.300000
-0.000800  78.500000
-0.000800  78.500000
0.000700  78.700000
-0.000800  78.400000
-0.000800  78.300000
0.000000  78.800000
-0.000800  78.400000
0.000000  78.600000
0.000700  78.600000
-0.000800  78.400000
-0.000800  78.700000
-0.000800  78.300000
-0.001500  78.700000
-0.003000  78.700000
-0.001500  78.400000
0.000000  78.900000
0.000000  78.500000
0.000000  78.500000
0.000000  78.600000
-0.000800  78.500000
-0.000800  78.600000
0.000000  78.300000
-0.001500  78.800000
-0.001500  78.400000
0.000700  78.600000
0.000000  78.700000
-0.000800  78.400000
-0.001500  78.600000
0.000700  78.700000
0.000700  78.400000
-0.001500  78.900000
-0.001500  78.500000
-0.000800  78.700000
-0.000800  78.600000
0.000000  78.500000
0.000000  78.300000
-0.000800  78.700000
-0.000800  78.700000
-0.001500  78.400000
-0.000800  78.700000
-0.000800  78.700000
-0.000800  78.500000
-0.000800  78.700000
-0.001500  78.500000
0.001500  78.600000
0.000700  78.600000
0.000000  78.300000
0.001500  78.700000
0.001500  78.500000
0.000700  78.500000
-0.000800  78.600000
0.000000  78.700000
0.001500  78.800000
0.003000  78.300000
0.001500  78.700000
0.001500  78.600000
0.000700  78.700000
-0.000800  78.700000
-0.000800  78.400000
0.000000  78.700000
0.000700  78.500000
-0.000800  78.600000
0.000000  78.700000
-0.000800  78.500000
-0.001500  78.500000
-0.000800  78.700000
-0.001500  78.500000
-0.000800  78.500000
0.001500  78.400000
0.001500  78.700000
0.000700  78.500000
-0.002300  78.700000
-0.001500  78.500000
-0.002300  78.400000
-0.002300  78.700000
-0.000800  78.500000
-0.001500  78.500000
-0.001500  78.700000
0.001500  78.400000
0.001500  78.600000
0.001500  78.600000
0.000700  78.700000
-0.001500  78.500000
-0.001500  78.700000
-0.000800  78.700000
0.000700  78.400000
0.000700  78.700000
0.000700  78.800000
0.000000  78.500000
0.000000  78.700000
0.000000  78.500000
0.000700  78.700000
0.000000  78.700000
-0.002300  78.400000
-0.001500  78.800000
-0.002300  78.500000
-0.001500  78.600000
0.001500  78.700000
0.002200  78.700000
0.002200  78.700000
0.001500  78.500000
0.000700  78.900000
0.000700  78.500000
-0.001500  78.700000
-0.000800  78.600000
-0.001500  78.600000
-0.001500  78.800000
0.000700  78.500000
0.000700  78.700000
0.001500  78.600000
0.000000  78.700000
0.000000  78.500000
0.000700  78.700000
-0.000800  78.600000
-0.000800  78.700000
-0.000800  78.600000
-0.001500  78.700000
-0.003000  78.300000
-0.001500  78.900000
-0.001500  78.500000
-0.003000  78.600000
-0.001500  78.600000
0.000000  78.500000
-0.001500  78.700000
-0.000800  78.700000
-0.002300  78.500000
-0.001500  78.800000
0.003000  78.600000
0.001500  78.500000
0.001500  78.700000
0.000700  78.600000
0.000700  78.500000
0.001500  78.700000
0.000700  78.800000
0.003000  78.500000
0.001500  78.700000
0.000700  78.700000
0.000000  78.500000
0.000000  78.800000
0.001500  78.500000
0.000000  78.800000
-0.000800  78.800000
0.000700  78.400000
-0.000800  78.600000
0.000000  78.600000
-0.000800  78.700000
0.000000  78.700000
0.000700  78.600000
-0.001500  78.900000
0.001500  78.300000
0.000700  78.800000
0.000000  78.600000
0.001500  78.500000
0.000000  78.800000
0.000700  78.500000
0.001500  78.700000
0.000700  78.700000
-0.000800  78.500000
-0.001500  78.800000
-0.000800  78.700000
-0.000800  78.600000
-0.001500  78.700000
-0.001500  78.700000
0.000000  78.900000
-0.000800  78.500000
-0.001500  78.900000
-0.000800  78.700000
-0.000800  78.700000
-0.000800  78.700000
-0.000800  78.400000
0.000700  78.800000
0.000000  78.700000
-0.001500  78.300000
-0.000800  78.800000
-0.001500  78.400000
-0.000800  78.600000
0.000000  78.700000
0.000700  78.700000
0.000700  78.500000
-0.001500  78.500000
0.000000  78.700000
0.000700  78.500000
0.000700  78.600000
0.001500  78.900000
0.000000  78.400000
0.000700  78.900000
0.000000  78.700000
-0.001500  78.600000
-0.001500  78.800000
0.000700  78.400000
0.001500  78.800000
-0.001500  78.600000
-0.001500  78.500000
0.000000  78.800000
0.000000  78.600000
0.000700  78.800000
0.000000  78.500000
-0.000800  78.600000
0.001500  78.700000
0.001500  78.400000
0.000700  78.900000
0.001500  78.500000
-0.000800  78.700000
-0.000800  78.700000
-0.003000  78.400000
-0.001500  78.600000
-0.000800  78.700000
-0.001500  78.700000
-0.000800  78.500000
-0.001500  78.600000
-0.000800  78.700000
0.000000  78.500000
0.001500  78.700000
0.001500  78.700000
0.000000  78.500000
0.001500  78.700000
-0.000800  78.700000
-0.000800  78.600000
0.000000  78.700000
-0.001500  78.500000
-0.000800  79.000000
-0.000800  78.500000
0.000700  78.500000
0.000700  78.700000
0.001500  78.700000
0.001500  78.700000
0.002200  78.500000
0.000700  78.700000
0.000000  78.700000
0.000000  78.500000
0.000700  78.900000
0.000700  78.400000
0.000700  78.500000
-0.000800  78.700000
-0.001500  78.500000
0.000700  78.700000
0.000700  78.400000
-0.001500  78.700000
0.000000  78.600000
-0.000800  78.700000
-0.000800  78.400000
-0.000800  78.500000
-0.001500  78.700000
-0.002300  78.700000
-0.000800  78.500000
-0.002300  78.700000
-0.000800  78.200000
-0.000800  78.700000
-0.000800  78.600000
0.001500  78.500000
0.000000  78.700000
0.000700  78.700000
0.000700  78.500000
0.000700  78.800000
-0.000800  78.500000
-0.001500  78.500000
0.000000  78.700000
-0.000800  78.500000
0.000700  78.300000
0.001500  78.500000
-0.000800  78.700000
-0.000800  78.500000
-0.000800  78.500000
0.000000  78.600000
0.000700  78.400000
0.000700  78.700000
0.000700  78.500000
0.000700  78.500000
0.000000  78.700000
0.000700  78.300000
0.000700  78.500000
0.000000  78.500000
0.000000  78.600000
-0.001500  78.400000
-0.001500  78.300000
-0.000800  78.700000
-0.001500  78.300000
-0.001500  78.500000
0.000000  78.500000
0.000000  78.300000
0.001500  78.700000
0.001500  78.500000
0.000700  78.300000
0.000700  78.600000
-0.001500  78.400000
-0.000800  78.400000
0.001500  78.700000
0.000000  78.500000
-0.000800  78.600000
0.001500  78.500000
0.001500  78.700000
0.000700  78.300000
-0.001500  78.500000
-0.001500  78.500000
0.000000  78.200000
-0.001500  78.600000
-0.002300  78.500000
-0.003000  78.300000
0.000000  78.700000
-0.000800  78.200000
-0.000800  78.600000
0.000700  78.500000
-0.001500  78.600000
-0.000800  78.400000
-0.001500  78.500000
0.000700  78.400000
0.003000  78.400000
0.000700  78.300000
0.001500  78.500000
0.000700  78.200000
0.000700  78.500000
0.000700  78.500000
0.000700  78.300000
-0.000800  78.500000
-0.003000  78.200000
-0.000800  78.400000
0.000000  78.500000
0.000000  78.300000
0.000700  78.300000
-0.001500  78.500000
-0.001500  78.300000
0.000700  78.200000
0.000700  78.200000
0.001500  78.700000
0.001500  78.300000
0.001500  78.500000
0.000000  78.400000
-0.000800  78.200000
-0.000800  78.400000
0.000000  78.400000
0.000000  78.200000
-0.000800  78.500000
0.000000  78.200000
0.000000  78.500000
-0.000800  78.400000
-0.000800  78.200000
0.000000  78.300000
0.000700  78.400000
-0.001500  78.400000
-0.000800  78.300000
-0.000800  78.100000
-0.000800  78.400000
-0.000800  78.200000
-0.001500  78.500000
-0.000800  78.200000
0.000000  78.200000
0.000700  78.400000
0.001500  78.100000
0.001500  78.300000
0.001500  78.200000
0.000700  78.300000
-0.000800  78.200000
0.001500  78.200000
0.000700  78.400000
0.000000  78.100000
-0.000800  78.300000
-0.001500  78.300000
-0.000800  78.100000
0.000000  78.400000
0.001500  78.300000
0.000700  78.300000
-0.000800  78.300000
0.000000  78.100000
0.000000  78.300000
0.001500  78.300000
0.001500  78.100000
0.003000  78.300000
0.000700  78.300000
-0.000800  78.300000
0.001500  78.200000
0.000700  78.300000
0.000000  78.200000
-0.000800  78.100000
-0.000800  78.300000
-0.003000  78.200000
-0.004600  78.100000
-0.003000  78.500000
-0.002300  78.100000
-0.003000  78.300000
-0.003000  78.200000
-0.000800  78.200000
-0.000800  78.300000
-0.000800  78.300000
-0.001500  78.200000
-0.001500  78.400000
-0.000800  78.300000
-0.000800  78.300000
-0.000800  78.000000
0.000000  78.400000
0.000700  78.000000
0.000700  78.200000
0.000000  78.300000
-0.002300  77.900000
-0.003000  78.300000
-0.001500  78.000000
-0.000800  78.100000
0.001500  78.300000
-0.000800  78.200000
-0.001500  78.300000
-0.000800  78.200000
-0.001500  78.100000
-0.001500  78.200000
0.000700  78.000000
0.001500  78.300000
0.000700  78.200000
0.000700  78.200000
0.000700  78.300000
0.003000  78.100000
0.003000  78.300000
0.001500  78.200000
0.001500  78.100000
0.001500  78.500000
0.003000  78.000000
0.000700  78.300000
-0.000800  78.200000
0.000700  78.300000
0.000700  78.100000
0.000700  78.100000
-0.000800  78.400000
-0.000800  78.200000
0.000700  78.100000
0.001500  78.300000
0.001500  77.900000
0.000000  78.300000
0.000700  78.200000
0.000000  78.100000
0.000000  78.400000
0.000700  78.100000
0.002200  78.400000
0.000700  78.200000
-0.000800  78.300000
-0.000800  78.300000
-0.001500  78.100000
0.000000  78.400000
-0.000800  78.200000
-0.000800  78.200000
-0.000800  78.500000
-0.000800  78.000000
-0.000800  78.300000
0.000000  78.300000
0.000000  78.100000
0.000700  78.300000
0.000000  78.300000
-0.002300  78.100000
-0.000800  78.500000
-0.000800  78.100000
-0.001500  78.300000
0.000000  78.200000
-0.000800  78.300000
-0.001500  78.200000
-0.000800  78.200000
-0.001500  78.300000
0.000000  78.100000
0.000700  78.100000
0.000000  78.500000
-0.000800  78.100000
-0.001500  78.400000
-0.000800  78.200000
0.000000  78.200000
0.000000  78.500000
0.000700  78.000000
0.000700  78.300000
-0.000800  78.300000
-0.001500  78.200000
0.000700  78.300000
0.002200  78.100000
0.000000  78.500000
0.000000  78.200000
-0.000800  78.300000
-0.002300  78.300000
0.000000  78.100000
0.000000  78.600000
0.000700  78.200000
0.000000  78.500000
0.000700  78.500000
0.001500  78.200000
0.000700  78.500000
0.003000  78.400000
0.001500  78.300000
0.000700  78.200000
0.000700  78.400000
-0.000800  78.600000
0.000700  78.100000
0.000000  78.400000
0.000700  78.300000
-0.000800  78.300000
-0.001500  78.300000
-0.003000  78.300000
-0.004600  78.300000
-0.003000  78.500000
-0.002300  78.100000
-0.001500  78.500000
-0.003000  78.300000
-0.001500  78.500000
-0.000800  78.200000
0.000000  78.300000
0.000000  78.300000
-0.001500  78.300000
0.000700  78.300000
0.000000  78.400000
-0.000800  78.200000
-0.000800  78.700000
0.001500  78.300000
0.001500  78.300000
0.000700  78.400000
0.000700  78.200000
-0.001500  78.600000
-0.001500  78.200000
-0.001500  78.300000
-0.000800  78.400000
0.000700  78.500000
0.001500  78.500000
0.000700  78.200000
-0.000800  78.700000
0.000700  78.300000
0.001500  78.400000
0.000700  78.600000
0.000700  78.200000
0.000700  78.600000
0.000000  78.400000
0.000000  78.400000
-0.000800  78.500000
0.000000  78.400000
0.000700  78.300000
-0.001500  78.600000
-0.000800  78.300000
0.003000  78.400000
0.000700  78.300000
0.000700  78.600000
0.001500  78.400000
0.000700  78.500000
0.000000  78.500000
-0.001500  78.300000
-0.002300  78.500000
-0.000800  78.600000
-0.000800  78.300000
-0.000800  78.700000
0.000700  78.500000
-0.000800  78.500000
-0.001500  78.600000
-0.001500  78.300000
-0.001500  78.600000
-0.002300  78.500000
-0.000800  78.500000
0.000700  78.400000
0.000000  78.400000
0.003000  78.700000
0.002200  78.300000
0.001500  78.700000
0.001500  78.600000
-0.000800  78.300000
0.000700  78.700000
0.000700  78.400000
0.000700  78.700000
-0.000800  78.700000
-0.000800  78.300000
-0.001500  78.500000
-0.000800  78.500000
0.001500  78.600000
0.001500  78.500000
0.001500  78.400000
0.000700  78.800000
0.000700  78.500000
0.000700  78.600000
-0.000800  78.600000
-0.000800  78.500000
-0.001500  78.500000
-0.001500  78.500000
-0.000800  78.300000
0.000700  78.700000
-0.000800  78.500000
-0.000800  78.600000
0.000000  78.500000
-0.001500  78.600000
-0.001500  78.500000
-0.001500  78.500000
-0.000800  78.600000
0.000700  78.500000
0.000700  78.400000
0.000700  78.700000
-0.000800  78.400000
-0.000800  78.600000
0.000000  78.700000
0.000000  78.400000
0.000000  78.700000
0.000000  78.500000
0.000700  78.700000
0.000700  78.700000
0.000700  78.500000
0.001500  78.600000
0.000700  78.700000
-0.000800  78.700000
0.000000  78.500000
-0.000800  78.500000
0.000700  78.700000
0.000000  78.400000
-0.002300  78.600000
0.000700  78.500000
0.000700  78.500000
0.000700  78.700000
-0.000800  78.500000
-0.000800  78.500000
0.000700  78.900000
0.001500  78.400000
0.000700  78.600000
0.002200  78.700000
0.000700  78.600000
-0.000800  78.600000
0.000700  78.600000
0.000700  78.700000
0.000700  78.500000
-0.002300  78.700000
-0.002300  78.700000
-0.002300  78.500000
-0.002300  78.800000
-0.000800  78.400000
-0.000800  78.600000
0.000700  78.700000
0.000000  78.400000
0.000700  78.900000
0.000700  78.700000
-0.001500  78.600000
-0.000800  78.700000
-0.001500  78.700000
-0.002300  78.900000
-0.003000  78.300000
-0.001500  78.700000
-0.003000  78.600000
-0.001500  78.500000
0.000700  78.900000
0.000700  78.400000
0.001500  78.700000
-0.000800  78.700000
0.000700  78.400000
0.000700  78.700000
0.000700  78.700000
-0.000800  78.500000
-0.003000  78.500000
-0.000800  78.700000
-0.000800  78.600000
-0.000800  78.400000
-0.000800  78.700000
-0.000800  78.600000
0.000700  78.600000
0.000700  78.800000
0.001500  78.600000
0.000700  78.700000
0.000000  78.700000
-0.000800  78.400000
-0.001500  78.700000
0.001500  78.600000
0.000700  78.500000
-0.000800  78.700000
0.000000  78.600000
-0.000800  78.700000
0.000000  78.500000
0.001500  78.600000
0.000700  78.700000
0.001500  78.500000
-0.000800  78.800000
-0.000800  78.500000
-0.000800  78.700000
-0.001500  78.700000
0.000000  78.400000
0.000000  78.800000
-0.000800  78.700000
0.000000  78.500000
-0.001500  78.800000
-0.001500  78.700000
-0.000800  78.700000
-0.001500  78.600000
-0.000800  78.700000
-0.000800  78.700000
-0.000800  78.600000
-0.000800  78.900000
-0.000800  78.500000
-0.001500  78.800000
0.000700  78.900000
0.000700  78.500000
0.000700  78.700000
-0.000800  78.700000
-0.000800  78.600000
0.000700  79.000000
0.000700  78.500000
0.000700  78.600000
0.000700  78.600000
0.002200  78.700000
0.000700  78.600000
-0.001500  78.500000
-0.000800  78.800000
0.000000  78.600000
-0.000800  78.500000
-0.001500  78.900000
-0.000800  78.400000
-0.000800  78.800000
0.000700  78.700000
0.000700  78.600000
0.001500  78.800000
0.003000  78.400000
0.001500  78.700000
0.000700  78.700000
0.000700  78.700000
0.002200  78.600000
0.000000  78.500000
0.000700  79.000000
0.000700  78.500000
0.000700  78.600000
0.000700  78.800000
-0.000800  78.500000
0.000700  78.900000
-0.000800  78.700000
-0.000800  78.700000
0.001500  78.700000
0.001500  78.500000
0.000700  78.600000
0.001500  78.700000
0.001500  78.700000
0.000000  78.600000
0.000700  78.700000
0.000700  78.900000
-0.000800  78.500000
-0.001500  78.600000
-0.000800  78.700000
-0.000800  78.600000
-0.002300  78.800000
-0.002300  79.000000
-0.000800  78.600000
-0.000800  78.900000
0.000000  78.500000
0.002200  78.700000
0.000700  78.700000
0.000700  78.700000
0.000000  78.600000
-0.001500  78.600000
0.000700  78.600000
0.000000  78.700000
-0.000800  78.600000
-0.001500  78.900000
-0.001500  78.500000
-0.000800  78.900000
-0.000800  78.700000
-0.000800  78.700000
-0.001500  78.800000
-0.000800  78.500000
-0.000800  78.900000
-0.001500  78.700000
0.000000  78.600000
-0.001500  78.700000
-0.003000  78.700000
-0.002300  78.700000
-0.001500  78.700000
-0.000800  78.700000
0.000700  78.800000
-0.000800  78.600000
-0.000800  78.900000
0.000000  78.500000
0.000000  78.700000
0.000000  78.700000
0.000700  78.500000
0.000700  78.800000
-0.000800  78.800000
-0.000800  78.600000
-0.000800  79.000000
-0.000800  78.600000
0.000700  78.700000
0.000000  78.700000
0.000000  78.800000
0.000000  78.700000
0.000700  78.900000
0.000700  78.700000
0.001500  78.700000
0.000700  78.700000
0.000700  78.700000
0.000700  78.700000
0.000000  78.900000
0.000700  78.500000
-0.000800  78.900000
0.000700  78.600000
-0.000800  78.700000
0.000000  78.700000
0.001500  78.700000
0.000700  78.800000
0.000700  78.700000
0.000000  78.800000
-0.001500  78.700000
-0.001500  78.500000
-0.000800  78.900000
-0.000800  78.700000
0.000700  78.800000
0.000700  78.800000
0.000000  78.500000
-0.001500  78.800000
-0.002300  78.700000
-0.000800  78.700000
-0.001500  78.900000
0.000700  78.700000
0.000700  78.700000
0.000700  78.700000
0.001500  78.900000
0.000000  78.700000
0.000700  78.500000
0.000700  79.000000
0.000700  78.600000
0.000700  78.800000
-0.000800  78.700000
-0.000800  78.700000
0.000000  78.800000
0.000700  78.700000
0.001500  78.800000
0.001500  78.900000
0.000000  78.500000
0.000000  78.600000
0.001500  78.700000
0.000700  78.600000
0.000000  78.700000
-0.001500  78.500000
-0.001500  78.800000
0.001500  78.600000
-0.000800  78.600000
0.000000  78.900000
0.002200  78.500000
0.001500  78.900000
0.002200  78.600000
0.001500  78.700000
0.000000  78.700000
-0.000800  78.400000
0.000700  78.700000
-0.000800  78.700000
-0.001500  78.700000
-0.002300  78.700000
-0.001500  78.700000
-0.000800  78.800000
-0.001500  78.600000
-0.000800  78.700000
0.000700  78.700000
-0.001500  78.700000
-0.003000  78.900000
-0.003000  78.600000
-0.003800  78.700000
-0.000800  78.700000
-0.001500  78.600000
-0.001500  78.700000
0.000700  78.700000
-0.000800  78.900000
0.000700  78.600000
0.000000  78.700000
-0.000800  78.800000
0.000700  78.500000
0.001500  78.800000
-0.000800  78.700000
-0.000800  78.500000
0.000700  78.700000
-0.000800  78.600000
0.000000  78.600000
-0.000800  78.800000
-0.000800  78.600000
-0.001500  78.800000
-0.001500  78.700000
-0.001500  78.700000
-0.001500  78.700000
-0.000800  78.700000
0.000000  78.700000
0.001500  78.500000
0.001500  78.600000
0.000000  78.600000
-0.000800  78.500000
-0.000800  78.800000
0.000700  78.400000
0.000000  78.700000
-0.000800  78.700000
-0.000800  78.500000
-0.000800  78.800000
-0.001500  78.500000
0.000000  78.700000
0.000700  78.700000
0.000700  78.700000
-0.000800  78.700000
0.000000  78.700000
0.000000  78.700000
0.000700  78.600000
-0.000800  78.500000
0.000700  78.900000
0.002200  78.400000
0.001500  78.600000
0.000700  78.700000
0.000700  78.600000
0.000700  78.700000
0.001500  78.700000
0.001500  78.500000
0.001500  78.700000
0.001500  78.600000
0.002200  78.700000
0.000000  78.700000
-0.000800  78.800000
-0.000800  78.500000
-0.000800  78.500000
0.000700  78.800000
0.001500  78.700000
0.000700  78.600000
-0.000800  78.900000
0.000700  78.500000
0.000700  78.900000
-0.000800  78.400000
0.000000  78.600000
-0.000800  78.700000
0.001500  78.400000
-0.000800  78.600000
-0.000800  78.700000
0.001500  78.600000
-0.000800  78.600000
-0.000800  78.500000
-0.001500  78.800000
-0.001500  78.400000
-0.001500  78.700000
-0.001500  78.700000
-0.001500  78.300000
-0.001500  78.800000
-0.002300  78.400000
-0.001500  78.500000
-0.000800  78.700000
-0.001500  78.500000
-0.001500  78.700000
-0.002300  78.500000
-0.000800  78.700000
-0.000800  78.600000
-0.000800  78.500000
0.000700  78.800000
0.000000  78.400000
0.000700  78.700000
0.003000  78.700000
0.000700  78.500000
0.000700  78.700000
0.000700  78.600000
0.000700  78.500000
-0.000800  78.600000
-0.001500  78.300000
-0.000800  78.700000
0.000000  78.600000
0.000700  78.700000
-0.000800  78.500000
-0.000800  78.500000
-0.000800  78.600000
0.000700  78.400000
0.001500  78.600000
0.000700  78.700000
0.000000  78.400000
-0.000800  78.700000
0.000000  78.400000
-0.000800  78.700000
-0.001500  78.500000
-0.002300  78.300000
-0.002300  78.800000
0.000700  78.600000
0.002200  78.700000
-0.000800  78.500000
-0.000800  78.500000
0.000000  78.500000
-0.000800  78.500000
0.000000  78.700000
-0.001500  78.600000
-0.001500  78.400000
-0.001500  78.700000
0.000700  78.200000
0.002200  78.600000
0.001500  78.500000
0.001500  78.300000
-0.000800  78.600000
-0.001500  78.400000
-0.002300  78.500000
-0.001500  78.700000
-0.000800  78.600000
-0.001500  78.500000
-0.000800  78.500000
0.000700  78.700000
-0.000800  78.400000
0.000700  78.300000
0.000700  78.600000
-0.000800  78.400000
0.000000  78.400000
0.000700  78.500000
0.000700  78.200000
0.000700  78.700000
0.002200  78.500000
0.002200  78.500000
0.001500  78.500000
0.000700  78.500000
0.000700  78.500000
-0.000800  78.500000
-0.001500  78.500000
-0.000800  78.400000
-0.003000  78.400000
-0.001500  78.700000
-0.001500  78.300000
0.000700  78.600000
0.001500  78.300000
0.001500  78.400000
0.000000  78.600000
-0.001500  78.200000
-0.000800  78.500000
-0.000800  78.500000
0.000700  78.200000
-0.001500  78.600000
-0.001500  78.600000
-0.000800  78.500000
-0.001500  78.500000
-0.001500  78.500000
-0.000800  78.500000
-0.000800  78.200000
-0.001500  78.600000
-0.000800  78.300000
0.000000  78.400000
-0.001500  78.600000
-0.000800  78.300000
0.000700  78.400000
0.000700  78.500000
0.000000  78.200000
0.000000  78.700000
0.001500  78.300000
0.001500  78.400000
0.000700  78.500000
0.000700  78.500000
-0.000800  78.400000
0.000000  78.200000
0.000700  78.600000
0.000700  78.400000
0.000000  78.400000
0.000700  78.500000
0.002200  78.200000
0.001500  78.600000
0.000700  78.300000
0.000700  78.300000
0.000700  78.600000
0.000700  78.300000
0.000700  78.300000
0.000700  78.300000
0.000000  78.300000
0.000000  78.400000
0.000000  78.200000
-0.000800  78.700000
0.001500  78.200000
-0.000800  78.500000
-0.000800  78.600000
-0.001500  78.200000
-0.003000  78.700000
-0.001500  78.300000
-0.002300  78.300000
-0.000800  78.500000
-0.001500  78.300000
-0.002300  78.500000
-0.000800  78.400000
-0.001500  78.400000
-0.000800  78.500000
0.000000  78.400000
0.002200  78.600000
0.000700  78.300000
-0.000800  78.400000
-0.000800  78.400000
-0.000800  78.200000
-0.000800  78.600000
-0.001500  78.300000
0.001500  78.300000
0.000700  78.600000
0.001500  78.200000
0.002200  78.400000
0.001500  78.500000
0.001500  78.500000
0.000700  78.300000
0.000700  78.500000
0.001500  78.400000
0.001500  78.400000
0.001500  78.300000
0.002200  78.600000
0.000700  78.100000
0.000000  78.500000
0.000000  78.400000
0.000000  78.000000
-0.001500  78.500000
-0.000800  78.100000
0.000700  78.500000
0.000000  78.500000
0.000700  78.300000
-0.002300  78.500000
-0.000800  78.500000
-0.000800  78.300000
-0.002300  78.300000
-0.001500  78.200000
-0.001500  78.600000
-0.001500  78.100000
-0.001500  78.400000
-0.000800  78.400000
0.000000  78.500000
0.000700  78.500000
0.000000  78.300000
0.000000  78.200000
0.000700  78.600000
-0.000800  78.100000
0.000700  78.500000
0.000700  78.300000
-0.000800  78.300000
-0.001500  78.500000
-0.001500  78.300000
-0.001500  78.600000
-0.000800  78.200000
-0.001500  78.200000
-0.001500  78.600000
-0.000800  78.100000
0.000700  78.500000
0.000000  78.300000
0.001500  78.200000
0.003000  78.500000
0.003000  78.300000
0.001500  78.500000
0.001500  78.400000
0.000700  78.400000
-0.002300  78.400000
-0.003000  78.300000
-0.003000  78.400000
-0.004600  78.200000
-0.002300  78.500000
-0.000800  78.500000
-0.000800  78.200000
0.000700  78.600000
0.000000  78.200000
-0.001500  78.300000
0.000000  78.700000
-0.001500  78.200000
-0.000800  78.400000
0.000700  78.400000
0.002200  78.200000
0.001500  78.400000
0.001500  78.500000
0.003000  78.300000
0.000700  78.300000
0.000000  78.400000
-0.003000  78.400000
-0.002300  78.300000
-0.000800  78.200000
0.000000  78.400000
0.000000  78.200000
-0.000800  78.600000
0.000000  78.200000
-0.001500  78.400000
-0.002300  78.300000
-0.001500  78.200000
0.000700  78.400000
0.000000  78.400000
-0.001500  78.300000
0.000000  78.300000
0.000700  78.300000
0.000700  78.400000
0.001500  78.200000
0.001500  78.600000
0.000700  78.300000
0.000000  78.300000
-0.000800  78.500000
0.000000  78.000000
0.000700  78.500000
0.001500  78.300000
0.002200  78.200000
0.000700  78.500000
0.001500  78.400000
0.000700  78.400000
0.000700  78.400000
0.000000  78.500000
-0.000800  78.500000
0.000700  78.200000
0.000000  78.700000
0.000700  78.200000
-0.000800  78.400000
-0.000800  78.500000
-0.000800  78.300000
-0.003000  78.400000
0.000700  78.500000
0.000000  78.400000
0.001500  78.500000
0.001500  78.200000
0.001500  78.200000
-0.000800  78.300000
-0.003000  78.400000
-0.001500  78.400000
-0.001500  78.300000
-0.000800  78.500000
-0.001500  78.200000
-0.000800  78.300000
-0.000800  78.600000
-0.000800  78.300000
0.000700  78.700000
0.002200  78.500000
0.001500  78.300000
0.000700  78.600000
0.000000  78.300000
-0.000800  78.500000
-0.000800  78.400000
0.000000  78.400000
-0.001500  78.400000
-0.001500  78.500000
-0.000800  78.500000
-0.000800  78.300000
-0.000800  78.300000
-0.000800  78.700000
-0.001500  78.200000
-0.000800  78.400000
-0.001500  78.600000
-0.001500  78.300000
-0.001500  78.500000
0.000700  78.500000
0.000700  78.300000
-0.002300  78.500000
0.000000  78.500000
0.000700  78.500000
-0.000800  78.300000
-0.000800  78.600000
-0.001500  78.300000
0.000700  78.300000
0.001500  78.600000
0.000700  78.400000
0.000700  78.300000
0.000000  78.700000
0.000700  78.200000
0.000700  78.600000
0.000700  78.500000
-0.000800  78.200000
0.000000  78.600000
0.000000  78.200000
0.000700  78.400000
-0.000800  78.300000
-0.000800  78.400000
0.000000  78.600000
-0.000800  78.300000
0.000000  78.600000
0.001500  78.300000
0.000700  78.300000
0.000700  78.700000
-0.000800  78.300000
-0.003800  78.500000
-0.003000  78.600000
-0.000800  78.200000
0.000700  78.500000
0.001500  78.500000
-0.000800  78.300000
-0.001500  78.400000
-0.001500  78.500000
0.000000  78.400000
0.000000  78.300000
-0.000800  78.500000
0.000700  78.500000
0.000700  78.300000
0.000000  78.500000
0.001500  78.400000
0.001500  78.400000
0.000000  78.700000
-0.000800  78.300000
-0.000800  78.600000
-0.001500  78.500000
0.000700  78.300000
0.000700  78.600000
0.000700  78.500000
0.000700  78.400000
0.000700  78.500000
0.002200  78.500000
0.000700  78.700000
0.000700  78.000000
0.001500  78.600000
0.000700  78.200000
0.000700  78.300000
0.001500  78.500000
-0.000800  78.200000
-0.000800  78.700000
-0.000800  78.500000
-0.001500  78.300000
0.000700  78.500000
-0.000800  78.300000
-0.001500  78.300000
0.000700  78.500000
0.000700  78.500000
0.001500  78.200000
-0.000800  78.300000
0.000000  78.600000
0.001500  78.300000
-0.000800  78.400000
-0.000800  78.500000
-0.003800  78.200000
-0.003000  78.400000
-0.000800  78.400000
-0.001500  78.300000
-0.001500  78.600000
-0.003000  78.300000
-0.002300  78.400000
-0.001500  78.400000
-0.002300  78.300000
-0.001500  78.300000
-0.000800  78.300000
0.000000  78.500000
-0.000800  78.400000
-0.000800  78.400000
0.000700  78.700000
0.001500  78.200000
0.000700  78.600000
0.000000  78.500000
0.000700  78.200000
-0.000800  78.600000
0.000700  78.200000
0.001500  78.500000
0.000700  78.400000
-0.000800  78.300000
-0.000800  78.300000
-0.001500  78.300000
-0.001500  78.600000
0.000700  78.300000
0.001500  78.400000
0.000700  78.500000
0.001500  78.200000
0.000700  78.500000
0.000000  78.300000
-0.002300  78.300000
-0.004600  78.500000
-0.000800  78.200000
-0.000800  78.400000
-0.000800  78.500000
0.000700  78.300000
0.003000  78.400000
0.001500  78.400000
0.000700  78.500000
-0.000800  78.200000
0.000700  78.500000
0.003000  78.500000
0.003000  78.300000
0.002200  78.300000
0.001500  78.600000
0.002200  78.300000
0.001500  78.700000
0.000700  78.300000
0.000700  78.600000
-0.000800  78.500000
0.001500  78.300000
0.001500  78.500000
0.000700  78.500000
0.001500  78.500000
-0.000800  78.400000
-0.000800  78.300000
0.000000  78.700000
0.000700  78.200000
0.000700  78.500000
0.001500  78.500000
0.003700  78.300000
0.001500  78.700000
0.001500  78.200000
0.001500  78.500000
0.000000  78.600000
0.000000  78.200000
-0.000800  78.500000
-0.000800  78.500000
-0.000800  78.400000
-0.000800  78.400000
-0.003000  78.500000
-0.003000  78.600000
-0.001500  78.300000
-0.002300  78.700000
-0.002300  78.400000
-0.001500  78.400000
-0.000800  78.500000
-0.000800  78.400000
0.000700  78.200000
0.000000  78.500000
-0.001500  78.200000
-0.000800  78.700000
0.000000  78.300000
-0.000800  78.500000
-0.000800  78.400000
0.000000  78.500000
-0.000800  78.500000
-0.000800  78.400000
-0.000800  78.400000
0.000000  78.500000
0.000700  78.200000
-0.000800  78.600000
0.001500  78.300000
0.003000  78.300000
0.002200  78.500000
0.001500  78.300000
-0.000800  78.700000
-0.000800  78.300000
0.001500  78.500000
0.000700  78.400000
0.000000  78.400000
-0.000800  78.400000
-0.000800  78.300000
-0.000800  78.500000
-0.001500  78.600000
-0.001500  78.300000
-0.001500  78.600000
-0.000800  78.200000
-0.000800  78.500000
0.000700  78.500000
0.000000  78.400000
-0.000800  78.400000
0.000000  78.500000
0.000700  78.300000
0.000000  78.400000
-0.000800  78.400000
0.000700  78.500000
-0.001500  78.300000
-0.001500  78.500000
-0.001500  78.300000
-0.000800  78.300000
-0.000800  78.500000
0.000700  78.300000
0.000000  78.300000
-0.000800  78.600000
0.000700  78.200000
-0.000800  78.700000
-0.000800  78.300000
-0.000800  78.300000
0.000700  78.600000
-0.001500  78.200000
-0.003000  78.400000
0.000000  78.300000
0.000700  78.300000
0.000000  78.500000
-0.001500  78.300000
-0.003000  78.600000
-0.001500  78.300000
-0.000800  78.200000
-0.000800  78.700000
-0.001500  78.300000
0.000000  78.600000
0.001500  78.400000
0.000700  78.500000
0.000700  78.600000
0.000000  78.300000
-0.000800  78.200000
-0.000800  78.500000
-0.003000  78.500000
-0.001500  78.500000
0.000700  78.300000
0.000700  78.700000
0.001500  78.300000
-0.000800  78.400000
0.000000  78.700000
0.000700  78.200000
-0.000800  78.400000
-0.000800  78.400000
0.000700  78.200000
-0.000800  78.600000
0.000700  78.200000
-0.000800  78.500000
-0.001500  78.500000
0.000000  78.500000
-0.000800  78.300000
0.000000  78.500000
0.001500  78.600000
0.000700  78.400000
0.000700  78.300000
0.001500  78.700000
-0.000800  78.200000
0.000700  78.700000
0.000700  78.300000
0.000700  78.200000
0.002200  78.700000
0.000700  78.200000
0.000700  78.500000
-0.000800  78.300000
0.000700  78.300000
0.001500  78.400000
0.000700  78.400000
0.000700  78.400000
-0.000800  78.200000
-0.000800  78.600000
-0.000800  78.400000
-0.001500  78.300000
-0.000800  78.700000
-0.000800  78.200000
-0.001500  78.500000
-0.000800  78.500000
0.000700  78.200000
-0.000800  78.500000
-0.000800  78.500000
0.000700  78.300000
0.000700  78.500000
0.000700  78.500000
-0.000800  78.400000
0.000000  78.300000
-0.000800  78.500000
-0.000800  78.300000
-0.000800  78.400000
-0.000800  78.600000
0.000700  78.400000
0.000700  78.400000
-0.000800  78.700000
0.000700  78.100000
0.000000  78.500000
0.000000  78.300000
0.001500  78.300000
-0.000800  78.400000
0.000000  78.400000
0.000700  78.500000
-0.000800  78.500000
-0.000800  78.500000
0.000000  78.400000
-0.000800  78.500000
0.000700  78.700000
0.002200  78.300000
0.001500  78.700000
0.003700  78.500000
0.002200  78.400000
0.000700  78.600000
0.000700  78.300000
-0.001500  78.500000
-0.000800  78.400000
0.000700  78.400000
0.000000  78.400000
0.000700  78.400000
-0.000800  78.500000
-0.000800  78.500000
0.000000  78.600000
0.000000  78.500000
-0.000800  78.400000
0.000000  78.700000
0.000000  78.300000
-0.000800  78.500000
-0.000800  78.500000
-0.000800  78.300000
0.000000  78.700000
0.000700  78.400000
0.002200  78.400000
0.000700  78.600000
0.000000  78.400000
0.001500  78.600000
0.000700  78.400000
-0.001500  78.700000
-0.002300  78.400000
-0.000800  78.600000
0.000000  78.600000
0.000000  78.400000
0.000000  78.600000
-0.001500  78.500000
0.000000  78.500000
0.001500  78.700000
0.000000  78.100000
-0.000800  78.700000
0.000700  78.400000
0.000700  78.300000
-0.000800  78.500000
-0.001500  78.500000
-0.003000  78.600000
-0.003000  78.500000
-0.000800  78.400000
0.000000  78.600000
-0.000800  78.300000
-0.001500  78.700000
-0.001500  78.600000
-0.000800  78.600000
0.000700  78.600000
0.000000  78.400000
-0.000800  78.700000
-0.001500  78.400000
-0.001500  78.500000
-0.002300  78.700000
-0.001500  78.500000
-0.001500  78.600000
-0.001500  78.500000
0.000000  78.700000
0.000700  78.300000
0.000000  78.500000
-0.000800  78.700000
0.000700  78.300000
0.000000  78.700000
0.000000  78.500000
0.001500  78.500000
0.000000  78.700000
0.000700  78.600000
0.000000  78.600000
0.001500  78.700000
0.000700  78.500000
-0.000800  78.600000
-0.000800  78.600000
-0.001500  78.600000
-0.003000  78.600000
0.000000  78.700000
0.001500  78.700000
0.003000  78.700000
0.003000  78.700000
0.001500  78.800000
-0.000800  78.400000
0.000700  78.700000
0.001500  78.600000
0.000000  78.700000
-0.000800  78.700000
-0.001500  78.500000
-0.001500  78.700000
-0.000800  78.600000
-0.000800  78.700000
-0.001500  78.700000
-0.002300  78.500000
-0.000800  79.000000
0.000000  78.400000
0.000700  78.800000
0.003000  78.600000
0.002200  78.400000
0.000000  78.900000
-0.001500  78.500000
-0.003000  78.700000
-0.004600  78.700000
-0.004600  78.500000
-0.002300  78.700000
-0.001500  78.900000
-0.000800  78.700000
-0.001500  78.600000
0.000000  78.700000
0.002200  78.900000
0.000700  78.500000
0.001500  79.000000
0.000700  78.600000
-0.001500  78.600000
0.000700  78.800000
0.001500  78.700000
0.001500  78.700000
0.000700  79.000000
0.000000  78.500000
0.000700  78.800000
0.000700  78.600000
-0.000800  78.700000
-0.000800  78.700000
0.000700  78.900000
0.001500  78.900000
0.001500  78.600000
0.001500  78.700000
0.001500  78.700000
0.001500  78.600000
-0.000800  78.900000
0.000700  78.600000
0.001500  78.800000
0.001500  78.700000
0.000700  78.600000
-0.000800  78.800000
0.001500  78.500000
0.000000  78.900000
-0.000800  78.600000
0.000000  78.700000
-0.000800  78.800000
0.001500  78.700000
0.001500  78.900000
0.000700  78.700000
0.001500  78.800000
0.000700  79.000000
0.000700  78.700000
0.001500  79.000000
0.000000  78.700000
0.000000  78.700000
0.000000  78.800000
0.000000  78.500000
0.000000  78.700000
0.000000  78.700000
-0.000800  78.700000
-0.001500  78.800000
-0.001500  78.800000
-0.001500  78.800000
-0.002300  78.500000
-0.000800  78.700000
-0.000800  78.800000
-0.000800  78.500000
-0.000800  78.900000
-0.003000  78.700000
-0.002300  78.700000
-0.001500  79.000000
-0.001500  78.600000
-0.003800  78.800000
-0.003000  78.700000
-0.003000  78.500000
-0.003000  78.700000
-0.001500  78.700000
0.000700  78.700000
0.000700  78.700000
-0.000800  78.700000
0.000000  78.900000
0.000700  78.500000
-0.000800  78.800000
-0.000800  78.700000
-0.001500  78.700000
-0.001500  78.900000
-0.000800  78.700000
-0.000800  78.800000
0.000700  78.900000
0.000700  78.600000
0.000000  78.700000
-0.000800  78.700000
0.000700  78.600000
0.000700  78.800000
-0.000800  78.900000
0.000700  78.900000
0.000700  78.600000
0.001500  78.800000
0.002200  78.500000
0.001500  78.700000
0.002200  78.800000
0.003000  78.600000
0.002200  78.800000
0.001500  78.800000
0.001500  78.500000
0.002200  79.000000
0.001500  78.600000
0.000700  78.800000
-0.000800  78.700000
0.000700  78.700000
0.000000  78.700000
-0.002300  78.600000
-0.001500  78.700000
-0.000800  78.700000
-0.000800  78.700000
0.000700  78.700000
-0.000800  78.500000
-0.000800  79.000000
-0.001500  78.600000
-0.001500  78.600000
-0.001500  78.700000
-0.001500  78.500000
-0.000800  78.700000
-0.000800  78.700000
-0.000800  78.700000
-0.003000  78.700000
-0.002300  78.700000
-0.002300  79.000000
0.000000  78.600000
0.000700  78.800000
-0.000800  78.600000
0.001500  78.800000
0.001500  79.000000
0.001500  78.400000
0.001500  78.900000
0.000700  78.600000
0.000700  78.700000
0.000700  78.800000
-0.000800  78.700000
-0.000800  78.600000
0.000700  78.600000
0.000700  78.600000
-0.000800  78.700000
0.000700  78.400000
0.000700  78.800000
0.000700  78.300000
0.000700  78.700000
0.000700  78.700000
0.000700  78.500000
0.000700  78.700000
0.000700  78.700000
0.001500  78.500000
0.000700  78.700000
-0.000800  78.500000
-0.001500  78.600000
-0.001500  78.700000
-0.001500  78.700000
-0.003000  78.700000
-0.001500  78.700000
-0.001500  78.800000
-0.000800  78.500000
-0.000800  78.700000
-0.000800  78.700000
0.000700  78.500000
0.000000  78.800000
-0.001500  78.600000
-0.001500  78.800000
-0.002300  78.700000
-0.000800  78.600000
-0.000800  78.800000
-0.002300  78.700000
-0.001500  78.500000
-0.001500  78.700000
-0.001500  78.700000
-0.000800  78.700000
-0.000800  78.500000
-0.001500  78.700000
0.000000  78.500000
-0.000800  78.700000
-0.000800  78.700000
0.003000  78.500000
0.002200  78.700000
0.001500  78.500000
0.002200  78.700000
0.002200  78.700000
0.002200  78.400000
0.001500  78.600000
0.003000  78.500000
0.001500  78.700000
0.000700  78.500000
-0.000800  78.700000
-0.000800  78.500000
0.001500  78.500000
-0.001500  78.700000
-0.001500  78.400000
0.000000  78.700000
0.000000  78.700000
0.000700  78.500000
0.000700  78.900000
0.000700  78.500000
0.000700  78.500000
0.000700  78.700000
0.000700  78.500000
0.000000  78.500000
-0.000800  78.600000
-0.001500  78.600000
-0.000800  78.500000
-0.000800  78.700000
-0.003000  78.700000
-0.003000  78.400000
-0.003000  78.500000
-0.000800  78.700000
-0.001500  78.400000
-0.000800  78.700000
0.001500  78.500000
0.002200  78.400000
0.004500  78.600000
0.004500  78.400000
0.004500  78.600000
0.004500  78.700000
0.003000  78.700000
0.003000  78.500000
0.000700  78.700000
-0.001500  78.700000
-0.001500  78.300000
-0.003800  78.700000
-0.005300  78.500000
-0.007500  78.700000
-0.008300  78.700000
-0.006000  78.400000
-0.005300  78.800000
-0.001500  78.500000
-0.000800  78.600000
-0.000800  78.700000
-0.000800  78.500000
-0.003000  78.500000
-0.005300  78.600000
-0.004600  78.700000
-0.005300  78.600000
-0.008300  78.400000
-0.005300  78.700000
-0.000800  78.300000
0.005200  78.600000
0.010500  78.600000
0.012700  78.300000
0.019500  78.500000
0.024000  78.500000
0.021700  78.500000
0.021700  78.900000
0.021000  78.400000
0.018000  78.700000
0.012000  78.600000
0.003000  78.500000
-0.005300  78.300000
-0.016500  78.500000
-0.024000  78.700000
-0.029300  78.500000
-0.031500  78.600000
-0.027000  78.700000
-0.015000  78.500000
-0.006000  78.700000
0.000700  78.500000
0.006000  78.300000
0.004500  78.700000
0.002200  78.300000
0.001500  78.700000
0.001500  78.600000
0.000000  78.400000
0.000700  78.500000
0.002200  78.500000
0.000700  78.600000
0.003000  78.300000
0.003000  78.600000
0.001500  78.800000
0.003000  78.400000
0.002200  78.700000
0.003700  78.500000
0.003000  78.600000
0.003000  78.700000
0.004500  78.500000
0.004500  78.400000
0.000700  78.700000
0.000700  78.700000
-0.000800  78.500000
-0.000800  78.700000
0.000700  78.800000
-0.000800  78.600000
-0.000800  78.700000
-0.001500  78.600000
-0.001500  78.400000
-0.001500  78.600000
-0.003800  78.700000
-0.004600  78.300000
-0.006800  78.700000
-0.007500  78.500000
-0.008300  78.600000
-0.006800  78.500000
-0.008300  78.500000
-0.008300  78.700000
-0.008300  78.500000
-0.007500  78.500000
-0.003000  78.500000
0.004500  78.500000
0.012700  78.700000
0.018000  78.400000
0.020200  78.900000
0.019500  78.600000
0.014200  78.500000
0.009700  78.800000
0.005200  78.300000
0.004500  78.700000
0.002200  78.600000
0.000700  78.500000
0.000700  78.600000
-0.002300  78.600000
-0.003000  78.600000
-0.004600  78.500000
-0.005300  78.500000
-0.005300  78.600000
-0.006000  78.300000
-0.005300  78.700000
-0.004600  78.500000
-0.004600  78.500000
-0.005300  78.600000
-0.005300  78.300000
-0.006800  78.600000
-0.007500  78.600000
-0.007500  78.300000
-0.005300  78.900000
-0.003000  78.500000
-0.001500  78.600000
-0.001500  78.500000
-0.002300  78.500000
0.000700  78.700000
0.003000  78.400000
0.005200  78.600000
0.008200  78.500000
0.009000  78.400000
0.008200  78.700000
0.006700  78.300000
0.004500  78.600000
0.005200  78.700000
0.004500  78.400000
0.003000  78.600000
0.002200  78.400000
0.000000  78.500000
-0.003000  78.700000
-0.004600  78.400000
-0.004600  78.500000
-0.006800  78.400000
-0.006800  78.700000
-0.008300  78.500000
-0.008300  78.500000
-0.004600  78.700000
-0.003000  78.200000
-0.004600  78.500000
-0.006000  78.600000
-0.004600  78.300000
-0.003800  78.700000
-0.003000  78.500000
0.000000  78.400000
0.001500  78.400000
0.002200  78.300000
0.003700  78.400000
0.004500  78.200000
0.003000  78.700000
0.003700  78.400000
0.004500  78.300000
0.003000  78.500000
0.003700  78.400000
0.004500  78.400000
0.003000  78.700000
0.003700  78.100000
0.002200  78.700000
0.002200  78.300000
0.000000  78.300000
-0.003000  78.600000
-0.001500  78.400000
-0.003000  78.400000
-0.003000  78.500000
-0.001500  78.400000
-0.001500  78.400000
0.000000  78.200000
0.001500  78.600000
0.000700  78.200000
-0.000800  78.400000
0.001500  78.400000
0.004500  78.200000
0.004500  78.500000
0.004500  78.100000
0.004500  78.300000
0.003700  78.300000
0.001500  78.200000
-0.001500  78.400000
-0.003000  78.400000
-0.001500  78.300000
-0.002300  78.200000
-0.004600  78.100000
-0.004600  78.500000
-0.004600  78.000000
-0.001500  78.400000
-0.002300  78.400000
-0.002300  78.100000
0.000700  78.400000
0.000700  78.200000
0.000700  78.100000
-0.002300  78.300000
-0.001500  77.800000
-0.000800  78.200000
-0.003000  78.100000
-0.003000  78.200000
-0.001500  78.100000
0.000000  78.100000
0.000700  78.300000
0.000700  77.900000
0.000000  78.100000
0.000700  78.300000
0.001500  77.800000
-0.000800  78.300000
-0.000800  77.800000
0.000000  78.000000
0.001500  78.100000
0.003000  77.800000
0.001500  78.200000
0.000000  77.900000
-0.000800  77.700000
0.000700  77.900000
0.000700  77.800000
0.000700  77.900000
0.000700  77.700000
-0.001500  77.900000
-0.004600  77.800000
-0.003000  77.600000
-0.004600  78.000000
-0.006800  77.500000
-0.006000  77.600000
-0.009800  77.800000
-0.008300  77.600000
-0.003000  77.700000
0.003700  77.700000
0.010500  77.600000
0.016500  77.600000
0.019500  77.600000
0.013500  77.600000
0.007500  77.300000
0.003000  77.600000
0.000700  77.300000
-0.001500  77.300000
-0.003000  77.400000
-0.003800  77.300000
-0.005300  77.300000
-0.004600  77.300000
-0.003800  77.100000
-0.003800  77.600000
-0.002300  77.000000
-0.004600  77.100000
-0.003800  77.300000
-0.004600  77.100000
-0.005300  77.100000
-0.008300  77.000000
-0.008300  77.100000
-0.004600  77.000000
-0.001500  76.800000
0.001500  77.200000
0.003700  76.900000
0.003700  77.000000
0.004500  76.900000
0.006700  76.700000
0.005200  77.000000
0.003000  76.500000
0.002200  76.700000
0.000000  76.800000
-0.000800  76.600000
-0.002300  76.500000
0.000700  76.700000
0.000000  76.500000
-0.000800  76.600000
0.000700  76.500000
-0.001500  76.600000
-0.001500  76.200000
0.000000  76.500000
-0.000800  76.400000
-0.000800  76.300000
-0.001500  76.500000
-0.002300  76.400000
-0.003800  76.100000
-0.003000  76.700000
-0.003000  76.100000
-0.003000  76.100000
0.000000  76.100000
-0.000800  75.900000
0.002200  76.100000
0.004500  75.900000
0.003700  75.900000
0.009000  76.000000
0.009000  76.000000
0.007500  76.100000
0.008200  75.600000
0.005200  75.900000
0.004500  76.000000
0.003000  75.600000
0.000700  75.700000
-0.001500  75.600000
-0.006000  75.700000
-0.009100  75.600000
-0.011300  75.600000
-0.012000  75.600000
-0.009100  75.400000
-0.006000  75.500000
-0.003800  75.500000
0.000000  75.100000
0.000000  75.500000
-0.000800  75.100000
-0.000800  75.300000
-0.000800  75.400000
-0.000800  75.000000
0.000000  75.300000
0.000000  75.200000
-0.000800  74.700000
-0.001500  75.300000
-0.003000  75.000000
-0.002300  74.900000
-0.000800  74.900000
0.000700  74.900000
-0.000800  75.000000
-0.000800  74.700000
0.000700  74.700000
0.001500  74.700000
0.002200  74.400000
0.001500  74.700000
0.001500  74.300000
0.000700  74.400000
0.001500  74.400000
0.001500  74.200000
0.003000  74.400000
0.001500  74.100000
0.003700  74.200000
0.005200  74.300000
0.003000  74.200000
0.000700  74.000000
0.001500  73.800000
0.003700  74.100000
0.003700  73.800000
0.003700  73.700000
0.002200  74.000000
0.003700  73.700000
0.000700  73.900000
0.000000  73.600000
0.000000  73.400000
-0.003000  73.800000
0.001500  73.300000
0.000700  73.300000
-0.001500  73.300000
-0.002300  73.400000
-0.003800  73.200000
-0.001500  73.000000
-0.002300  73.300000
-0.003000  72.900000
-0.001500  72.900000
0.000700  73.100000
0.000700  72.700000
-0.000800  72.800000
-0.001500  72.900000
-0.000800  72.500000
0.000700  72.800000
0.000000  72.500000
-0.000800  72.600000
-0.000800  72.600000
-0.003000  72.500000
-0.003000  72.500000
-0.002300  72.400000
-0.004600  72.400000
-0.007500  72.400000
-0.008300  72.200000
-0.009800  72.400000
-0.008300  71.800000
-0.010500  72.200000
-0.011300  72.000000
-0.004600  71.700000
0.007500  72.100000
0.018700  71.500000
0.023200  71.800000
0.024000  71.600000
0.023200  71.700000
0.015700  71.500000
0.010500  71.400000
0.004500  71.400000
0.000700  71.300000
-0.002300  71.200000
-0.005300  71.400000
-0.005300  70.800000
-0.005300  71.200000
-0.005300  71.000000
-0.003000  70.800000
-0.003000  71.200000
-0.002300  70.900000
-0.005300  70.600000
-0.006800  70.800000
-0.006000  70.400000
-0.006800  70.500000
-0.004600  70.500000
-0.003000  70.400000
-0.004600  70.400000
-0.003000  70.200000
-0.004600  70.200000
-0.004600  70.100000
-0.001500  70.100000
0.002200  70.200000
0.006000  69.700000
0.005200  70.100000
0.006000  69.600000
0.008200  69.800000
0.008200  69.700000
0.007500  69.500000
0.005200  69.700000
0.004500  69.700000
0.004500  69.300000
0.000700  69.300000
-0.003800  69.400000
-0.010500  69.500000
-0.014300  69.200000
-0.015800  69.200000
-0.016500  69.100000
-0.014300  69.000000
-0.010500  69.400000
-0.004600  68.900000
-0.002300  68.900000
0.000000  68.900000
0.001500  68.700000
0.003000  68.800000
0.005200  68.800000
0.005200  68.700000
0.003000  68.700000
0.003000  68.600000
0.000700  68.600000
0.001500  68.300000
-0.000800  68.500000
-0.000800  68.500000
-0.003000  68.200000
-0.006800  68.400000
-0.009100  68.200000
-0.012800  68.000000
-0.018800  68.400000
-0.021800  67.900000
-0.019500  68.100000
-0.015800  68.100000
-0.007500  67.900000
0.006000  67.900000
0.019500  67.800000
0.029200  67.900000
0.036000  67.900000
0.039000  67.600000
0.034500  68.000000
0.027000  67.500000
0.020200  67.700000
0.018000  67.700000
0.012700  67.400000
0.007500  67.600000
0.004500  67.200000
-0.000800  67.400000
-0.006000  67.200000
-0.008300  67.100000
-0.008300  67.200000
-0.005300  67.100000
-0.006800  67.300000
-0.008300  66.900000
-0.008300  66.900000
-0.006000  67.000000
-0.006000  66.600000
-0.006800  66.900000
-0.006800  66.700000
-0.008300  66.600000
-0.008300  66.700000
-0.006800  66.400000
-0.007500  66.600000
-0.006800  66.600000
-0.004600  66.200000
-0.002300  66.600000
-0.001500  66.100000
-0.000800  66.100000
-0.000800  66.000000
-0.000800  66.000000
0.000700  65.800000
-0.000800  65.700000
0.000700  65.900000
-0.001500  65.800000
-0.002300  65.700000
-0.002300  65.900000
-0.001500  65.500000
-0.003000  65.500000
-0.004600  65.500000
-0.000800  65.200000
0.001500  65.400000
0.003000  65.200000
0.003000  65.200000
0.003000  65.200000
0.003000  65.000000
0.001500  65.000000
0.001500  64.800000
-0.000800  65.100000
-0.000800  64.600000
-0.003000  64.600000
-0.003000  64.800000
-0.003000  64.300000
-0.004600  64.600000
-0.002300  64.100000
-0.001500  64.200000
-0.000800  64.300000
-0.001500  64.000000
-0.002300  64.000000
-0.001500  64.000000
-0.001500  63.800000
0.001500  63.600000
0.004500  63.500000
0.008200  63.700000
0.011200  63.300000
0.010500  63.400000
0.009000  63.400000
0.005200  63.000000
0.004500  63.100000
0.001500  63.000000
0.001500  62.800000
0.000700  63.000000
-0.001500  62.400000
-0.003000  62.600000
-0.004600  62.500000
-0.005300  62.200000
-0.006000  62.200000
-0.006800  62.300000
-0.008300  62.200000
-0.008300  61.900000
-0.011300  61.800000
-0.012800  62.000000
-0.006800  61.500000
0.003700  61.800000
0.011200  61.500000
0.012700  61.300000
0.017200  61.500000
0.020200  61.000000
0.016500  61.400000
0.014200  61.100000
0.012000  60.900000
0.009000  60.900000
0.006700  60.800000
-0.002300  60.700000
-0.016500  60.600000
-0.034600  60.700000
-0.048000  60.500000
-0.048800  60.200000
-0.033000  60.500000
-0.015800  59.900000
0.000000  60.300000
0.012700  60.000000
0.014200  59.800000
0.015700  59.900000
0.013500  59.800000
0.011200  59.600000
0.009000  59.800000
0.006700  59.400000
0.006700  59.300000
0.005200  59.300000
0.004500  59.100000
0.004500  59.100000
0.004500  59.100000
0.004500  59.100000
0.003700  58.800000
0.003000  58.800000
0.002200  58.900000
0.003000  58.400000
0.001500  58.800000
-0.000800  58.300000
-0.001500  58.200000
-0.002300  58.400000
-0.003800  58.100000
-0.003800  58.200000
-0.000800  58.100000
0.000000  57.900000
-0.000800  57.900000
0.001500  57.600000
0.002200  58.000000
0.000700  57.400000
-0.000800  57.900000
-0.000800  57.600000
0.007500  57.400000
0.008200  57.600000
0.006700  57.100000
0.007500  57.100000
0.008200  57.200000
0.014200  56.800000
0.019500  57.000000
0.023200  56.900000
0.024000  56.800000
0.025500  56.700000
0.020200  56.500000
0.009000  56.600000
-0.000800  56.100000
-0.012800  56.400000
-0.026300  56.100000
-0.042800  56.000000
-0.056300  56.100000
-0.060800  55.800000
-0.057800  55.800000
-0.046500  55.800000
-0.032300  55.300000
-0.013500  55.600000
0.004500  55.300000
0.008200  55.500000
0.006700  55.300000
0.005200  55.100000
0.003000  55.100000
0.006000  54.900000
0.009700  54.800000
0.012000  54.700000
0.015700  54.400000
0.012700  54.700000
0.014200  54.200000
0.020200  54.300000
0.020200  54.200000
0.018000  53.900000
0.012700  54.100000
0.008200  53.600000
0.005200  53.500000
-0.000800  53.600000
-0.005300  53.400000
-0.007500  53.200000
-0.009100  53.100000
-0.004600  53.100000
0.003700  52.900000
0.009700  52.600000
0.011200  52.700000
0.009700  52.400000
0.009000  52.600000
0.006700  52.400000
0.004500  52.000000
0.000700  52.100000
0.000700  51.900000
0.003000  51.700000
0.000700  51.800000
-0.000800  51.400000
-0.001500  51.300000
-0.001500  51.100000
-0.003000  51.300000
-0.003800  50.900000
-0.003000  50.600000
-0.003800  50.800000
-0.003000  50.300000
-0.003800  50.400000
-0.004600  50.400000
-0.003000  49.900000
-0.005300  50.200000
-0.004600  49.800000
-0.003000  49.600000
-0.003000  49.700000
-0.001500  49.200000
-0.003000  49.200000
-0.004600  49.100000
-0.004600  49.000000
-0.002300  48.700000
-0.003000  48.800000
-0.003000  48.600000
-0.006000  48.100000
-0.008300  48.300000
-0.010500  48.200000
-0.013500  47.700000
-0.014300  47.900000
-0.009800  47.600000
-0.003000  47.500000
-0.003000  47.500000
0.004500  47.100000
0.009000  47.000000
0.010500  46.900000
0.015700  46.800000
0.021700  46.700000
0.030000  46.300000
0.030700  46.600000
0.029200  46.000000
0.026200  46.100000
0.015700  46.000000
0.003000  45.600000
-0.012000  45.900000
-0.023300  45.600000
-0.030800  45.300000
-0.033000  45.700000
-0.027800  45.100000
-0.018800  45.300000
-0.005300  45.100000
0.001500  45.100000
0.003700  44.900000
0.005200  44.900000
0.004500  45.000000
0.003000  44.600000
0.001500  44.500000
0.003000  44.700000
0.001500  44.200000
0.001500  44.400000
0.000700  44.000000
-0.000800  43.800000
-0.001500  44.100000
-0.000800  43.500000
0.000700  43.700000
0.001500  43.500000
0.000700  43.400000
0.000000  43.200000
0.003000  43.200000
0.005200  43.100000
0.006700  42.700000
0.005200  42.700000
0.003700  42.900000
0.006700  42.300000
0.007500  42.400000
0.003000  42.200000
-0.003000  42.200000
-0.003000  42.100000
-0.000800  41.800000
0.000700  41.800000
-0.003800  41.800000
-0.006800  41.300000
-0.003800  41.400000
0.001500  41.400000
0.001500  41.200000
0.001500  41.200000
0.006700  41.200000
0.010500  41.000000
0.009700  40.600000
0.004500  40.900000
-0.003000  40.600000
-0.007500  40.400000
-0.009100  40.600000
-0.008300  40.000000
-0.008300  40.200000
-0.012800  40.000000
-0.023300  39.800000
-0.024800  40.000000
-0.018800  39.600000
-0.011300  39.500000
-0.003800  39.300000
-0.000800  39.200000
0.005200  39.400000
0.007500  38.800000
0.006700  39.200000
0.006000  38.700000
0.003000  38.600000
0.003000  38.800000
0.000700  38.300000
0.003000  38.500000
0.005200  38.400000
0.004500  38.100000
0.006700  38.100000
0.005200  38.000000
0.005200  37.700000
0.003700  37.700000
0.000000  37.600000
-0.003000  37.500000
-0.005300  37.200000
-0.004600  37.600000
-0.001500  37.100000
0.000700  37.200000
0.004500  37.100000
0.006000  36.700000
0.008200  36.900000
0.018000  36.900000
0.030700  36.500000
0.029200  36.800000
0.023200  36.300000
0.019500  36.500000
0.012700  36.400000
0.012000  36.200000
0.009000  36.000000
0.003000  36.000000
-0.008300  36.200000
-0.024000  35.800000
-0.035300  35.700000
-0.044300  35.800000
-0.050300  35.300000
-0.045800  35.700000
-0.034600  35.400000
-0.012000  35.300000
0.001500  35.400000
0.003000  35.100000
0.007500  35.400000
0.005200  35.100000
0.006000  35.100000
0.006000  35.000000
0.006700  34.900000
0.006000  34.700000
0.003000  34.500000
0.003000  34.700000
0.001500  34.600000
0.004500  34.400000
0.004500  34.600000
0.001500  34.100000
0.000700  34.300000
-0.000800  34.400000
0.006700  33.900000
0.018000  34.000000
0.024700  33.900000
0.030000  33.700000
0.024000  33.900000
0.017200  33.700000
0.009700  33.700000
-0.004600  33.400000
-0.016500  33.700000
-0.024800  33.400000
-0.027800  33.300000
-0.027000  33.300000
-0.034600  33.200000
-0.036800  33.100000
-0.017300  33.300000
0.000700  32.900000
0.007500  33.100000
0.012000  32.900000
0.015000  32.700000
0.010500  32.900000
0.007500  32.800000
0.005200  32.700000
0.005200  32.600000
0.006700  32.500000
0.003700  32.700000
0.000700  32.400000
-0.001500  32.500000
0.000000  32.400000
0.004500  32.100000
0.006700  32.300000
0.009700  31.900000
0.009000  32.200000
0.001500  32.000000
-0.000800  31.800000
-0.002300  31.900000
-0.005300  31.900000
-0.004600  31.700000
-0.001500  31.600000
0.000000  31.600000
-0.000800  31.600000
-0.000800  31.300000
-0.000800  31.500000
-0.000800  31.300000
0.001500  31.200000
0.000000  31.300000
0.000700  31.000000
-0.000800  31.000000
-0.000800  31.000000
-0.001500  30.900000
-0.003000  31.000000
-0.000800  30.600000
-0.000800  30.600000
-0.000800  30.600000
-0.001500  30.600000
-0.003000  30.400000
-0.003000  30.100000
-0.004600  30.200000
-0.001500  30.200000
0.002200  30.000000
0.003000  30.400000
0.002200  29.800000
0.003000  29.900000
0.001500  29.900000
0.000700  29.600000
-0.000800  29.900000
-0.000800  29.400000
0.000700  29.600000
0.002200  29.600000
0.006000  29.300000
0.014200  29.300000
0.021700  29.200000
0.019500  29.300000
0.011200  28.900000
0.007500  28.900000
0.000700  29.000000
-0.003800  28.500000
-0.009100  28.900000
-0.019500  28.500000
-0.025600  28.600000
-0.030800  28.600000
-0.030800  28.300000
-0.027000  28.300000
-0.025600  28.300000
-0.016500  28.000000
0.000000  28.100000
0.009000  28.100000
0.011200  28.100000
0.011200  27.700000
0.010500  27.900000
0.012700  27.900000
0.009000  27.500000
0.009000  27.800000
0.012700  27.600000
0.013500  27.500000
0.015700  27.800000
0.014200  27.300000
0.006000  27.500000
-0.009100  27.300000
-0.007500  27.200000
0.000700  27.400000
-0.001500  27.100000
-0.004600  27.000000
-0.006000  27.000000
-0.008300  26.900000
-0.013500  27.200000
-0.014300  26.600000
-0.009800  27.000000
-0.004600  26.700000
-0.000800  26.600000
0.000000  26.800000
0.005200  26.400000
0.012000  26.700000
0.021000  26.500000
0.021700  26.400000
0.012000  26.500000
0.000700  26.400000
-0.006800  26.500000
-0.003800  26.300000
-0.006800  26.200000
-0.014300  26.400000
-0.012800  26.000000
-0.012000  26.400000
-0.006000  26.100000
0.000700  26.100000
0.000700  26.100000
0.003000  25.800000
0.009000  26.100000
0.013500  26.000000
0.012700  25.600000
0.007500  25.900000
0.004500  25.800000
0.002200  25.600000
-0.000800  25.600000
0.000700  25.500000
-0.001500  25.600000
-0.001500  25.200000
-0.001500  25.500000
0.000000  25.400000
0.010500  25.000000
0.023200  25.400000
0.031500  24.900000
0.031500  25.200000
0.027000  25.200000
0.020200  25.000000
0.012700  25.200000
0.000700  24.900000
-0.018800  24.800000
-0.042800  24.800000
-0.060000  24.900000
-0.065300  24.700000
-0.063000  24.600000
-0.046500  24.700000
-0.022500  24.700000
-0.001500  24.400000
0.005200  24.800000
0.009700  24.300000
0.012700  24.600000
0.014200  24.400000
0.018000  24.200000
0.020200  24.400000
0.015700  24.300000
0.004500  24.100000
0.001500  24.200000
0.005200  24.000000
0.008200  24.100000
0.012700  24.100000
0.012700  24.100000
0.014200  24.100000
0.011200  23.800000
0.008200  24.100000
0.009700  24.000000
0.012000  23.600000
0.010500  24.100000
0.000700  23.500000
-0.004600  23.800000
-0.009100  23.800000
-0.012800  23.600000
-0.019500  23.800000
-0.025600  23.500000
-0.024000  23.600000
-0.014300  23.600000
0.003700  23.400000
0.015700  23.500000
0.021700  23.200000
0.015000  23.500000
0.003000  23.300000
-0.001500  23.100000
-0.006800  23.400000
-0.003000  22.900000
0.001500  23.200000
0.000700  23.100000
0.000700  23.000000
0.004500  23.100000
0.014200  22.900000
0.016500  22.800000
0.012700  22.900000
0.009000  22.800000
0.004500  22.800000
0.008200  22.500000
0.009000  22.900000
0.003700  22.400000
-0.009800  22.400000
-0.025600  22.600000
-0.036800  22.300000
-0.045800  22.400000
-0.048800  22.600000
-0.034600  22.200000
-0.013500  22.400000
0.001500  22.200000
0.010500  22.100000
0.009000  22.300000
0.009000  22.100000
0.009000  22.100000
0.006700  22.000000
0.007500  22.100000
0.007500  22.000000
0.008200  21.800000
0.010500  22.100000
0.011200  21.500000
0.011200  21.900000
0.008200  21.700000
0.005200  21.400000
0.010500  21.800000
0.012700  21.200000
0.010500  21.700000
0.003000  21.400000
-0.003000  21.400000
-0.006800  21.100000
-0.013500  21.100000
-0.008300  21.200000
0.000700  20.900000
0.008200  20.900000
0.016500  21.100000
0.021000  20.900000
0.024000  21.100000
0.020200  20.800000
0.009000  20.600000
-0.007500  20.900000
-0.027800  20.600000
-0.047300  20.500000
-0.064500  20.700000
-0.065300  20.300000
-0.042800  20.400000
-0.014300  20.400000
0.000000  20.300000
0.005200  20.300000
0.009000  20.200000
0.009700  20.300000
0.015700  20.100000
0.026200  20.200000
0.034500  20.200000
0.039000  20.000000
0.031500  20.200000
0.015700  19.700000
0.006000  19.800000
0.003000  19.800000
-0.000800  19.700000
-0.000800  19.900000
0.004500  19.800000
0.012700  19.500000
0.012000  19.700000
0.006700  19.500000
-0.000800  19.800000
-0.012800  19.300000
-0.012800  19.500000
-0.016500  19.500000
-0.024000  19.300000
-0.016500  19.500000
-0.003000  19.200000
0.000000  19.300000
0.002200  19.300000
0.003700  19.000000
-0.002300  19.100000
-0.012000  19.200000
-0.024000  19.200000
-0.027000  19.000000
-0.030000  19.000000
-0.024000  19.000000
-0.006000  18.900000
0.008200  19.100000
0.018000  18.900000
0.021700  18.900000
0.018700  18.900000
0.015000  18.900000
0.017200  18.700000
0.019500  18.900000
0.021700  18.500000
0.021700  18.700000
0.012700  18.600000
0.000700  18.600000
-0.008300  18.500000
-0.009100  18.500000
-0.003000  18.500000
0.003700  18.400000
0.008200  18.600000
0.006700  18.600000
0.003000  18.300000
0.000000  18.600000
-0.005300  18.300000
0.006700  18.200000
0.015000  18.600000
0.004500  18.100000
-0.009100  18.400000
-0.024800  18.300000
-0.033000  18.100000
-0.030800  18.300000
-0.018100  18.200000
-0.003000  18.200000
0.006700  18.100000
0.020200  18.300000
0.040500  18.200000
0.060700  17.900000
0.060700  18.300000
0.050200  17.900000
0.031500  18.000000
0.006700  18.100000
-0.013500  17.700000
-0.036100  17.900000
-0.054000  18.000000
-0.069100  17.700000
-0.085600  18.000000
-0.085600  17.700000
-0.060000  17.800000
-0.030000  17.500000
-0.005300  17.500000
0.019500  17.500000
0.025500  17.400000
0.022500  17.500000
0.027000  17.500000
0.018000  17.100000
0.009000  17.500000
0.008200  17.100000
0.015700  17.200000
0.018000  17.500000
0.010500  17.000000
0.003000  17.400000
-0.010500  17.000000
-0.009100  16.900000
-0.001500  16.900000
0.001500  17.000000
0.001500  16.900000
0.016500  16.600000
0.045000  17.000000
0.055500  16.900000
0.046500  16.500000
0.036700  17.000000
0.026200  16.400000
0.003000  16.600000
-0.023300  16.600000
-0.036800  16.300000
-0.047300  16.400000
-0.066800  16.400000
-0.078000  16.100000
-0.051100  16.300000
-0.012000  16.200000
0.006700  16.200000
0.020200  16.200000
0.021000  16.100000
0.015000  16.100000
0.015700  15.800000
0.014200  16.000000
0.016500  15.800000
0.021700  15.600000
0.024000  15.800000
0.020200  15.500000
0.015700  15.700000
0.012000  15.500000
0.010500  15.300000
0.013500  15.700000
-0.003000  15.400000
-0.021800  15.300000
-0.032300  15.300000
-0.039000  15.300000
-0.036800  15.400000
-0.029300  14.900000
-0.015800  15.300000
0.000700  14.900000
0.006700  14.800000
0.004500  15.100000
0.000700  14.700000
0.003000  14.900000
0.006700  14.800000
0.005200  14.500000
0.003000  14.800000
0.010500  14.800000
0.024000  14.600000
0.035200  14.600000
0.046500  14.500000
0.050200  14.400000
0.035200  14.200000
0.009700  14.700000
-0.017300  14.400000
-0.021000  14.000000
-0.020300  14.300000
-0.039000  14.300000
-0.030800  14.000000
-0.011300  14.300000
0.000000  13.900000
0.009000  14.100000
0.004500  14.000000
0.000700  13.700000
-0.001500  13.900000
-0.018100  14.000000
-0.039000  13.800000
-0.021800  13.700000
0.031500  13.500000
0.059200  13.900000
0.053200  13.500000
0.048700  13.800000
0.029200  13.600000
-0.012000  13.500000
-0.016500  13.700000
-0.017300  13.300000
-0.048000  13.700000
-0.080300  13.500000
-0.090000  13.300000
-0.054800  13.500000
-0.061500  13.300000
-0.068300  13.100000
-0.044300  13.300000
-0.027800  13.200000
0.019500  13.400000
0.033000  12.900000
0.055500  13.300000
0.074200  13.100000
0.066700  12.900000
0.070500  13.100000
0.055500  13.000000
0.044200  12.900000
0.025500  13.100000
0.000700  12.600000
-0.029300  13.000000
-0.051800  12.800000
-0.047300  12.800000
-0.048800  12.700000
-0.049500  12.600000
-0.017300  12.700000
0.001500  12.600000
0.006700  12.600000
0.030000  12.700000
0.026200  12.400000
0.018000  12.700000
0.021000  12.500000
0.020200  12.300000
0.027000  12.600000
0.042000  12.100000
0.036700  12.600000
0.008200  12.100000
-0.034600  12.000000
-0.064500  12.100000
-0.048800  12.300000
-0.018800  12.100000
-0.001500  11.800000
0.004500  12.000000
0.012000  11.900000
0.029200  11.700000
0.053200  12.100000
0.061500  11.600000
0.054700  11.700000
0.057000  11.800000
0.051000  11.500000
0.048000  11.700000
0.039000  11.700000
0.009000  11.400000
-0.036800  11.600000
-0.095300  11.400000
-0.130500  11.400000
-0.106500  11.300000
-0.048000  11.300000
-0.033800  11.100000
-0.023300  11.100000
-0.015800  11.300000
-0.008300  10.900000
0.016500  10.900000
0.030700  11.100000
0.054700  10.800000
0.048000  11.000000
0.030700  10.700000
0.014200  10.700000
-0.000800  10.800000
0.006700  10.600000
0.007500  10.500000
-0.006800  10.600000
-0.025600  10.300000
-0.000800  10.500000
0.048000  10.200000
0.071200  10.700000
0.051700  10.100000
-0.009100  10.300000
-0.073500  10.300000
-0.088500  10.000000
-0.084000  10.300000
-0.115500  10.100000
-0.091500  9.800000
-0.023300  10.100000
-0.015800  9.900000
-0.014300  9.600000
0.005200  9.700000
0.019500  9.800000
0.049500  9.700000
0.057000  9.400000
0.065200  9.800000
0.084700  9.600000
0.080200  9.500000
0.068200  9.600000
0.036700  9.500000
-0.024800  9.300000
-0.081800  9.500000
-0.091500  9.200000
-0.062300  9.500000
-0.033000  9.100000
-0.033000  9.200000
-0.027000  9.200000
0.000700  9.000000
0.024000  8.900000
0.067500  9.000000
0.115500  8.900000
0.169500  9.000000
0.218200  8.600000
0.231000  9.000000
0.229500  8.600000
0.174700  8.600000
0.047200  8.800000
-0.107300  8.400000
-0.269300  8.700000
-0.389300  8.500000
-0.408100  8.200000
-0.291000  8.500000
-0.135000  8.400000
-0.084000  8.200000
-0.039000  8.200000
0.008200  8.200000
0.030700  8.200000
0.066000  7.900000
0.076500  8.200000
0.107200  7.800000
0.131200  8.100000
0.140200  8.000000
0.165700  7.900000
0.164200  7.900000
0.111700  7.700000
0.044200  7.400000
0.008200  7.900000
0.004500  7.300000
-0.039800  7.500000
-0.108800  7.500000
-0.144100  7.400000
-0.189800  7.300000
-0.161300  7.100000
-0.096000  7.200000
-0.126000  7.200000
-0.153800  7.000000
-0.057800  7.300000
0.079500  6.900000
0.143200  7.000000
0.151500  7.200000
0.123700  6.800000
0.091500  7.100000
0.052500  6.700000
0.029200  6.700000
-0.004600  6.700000
-0.078000  6.800000
-0.111000  6.700000
-0.075000  6.600000
-0.012000  6.800000
0.015700  6.600000
0.018700  6.500000
0.039000  6.700000
0.045000  6.300000
0.040500  6.500000
0.047200  6.500000
0.042700  6.300000
0.033000  6.700000
0.027000  6.400000
0.024700  6.400000
0.018000  6.700000
0.031500  6.300000
0.040500  6.200000
0.001500  6.300000
-0.006800  6.300000
0.010500  5.900000
0.029200  6.200000
0.066700  6.300000
0.068200  5.900000
0.053200  6.000000
0.017200  6.200000
-0.025600  5.900000
-0.024800  6.200000
-0.057800  5.800000
-0.137300  5.900000
-0.149300  6.000000
-0.076500  5.700000
-0.012800  5.800000
0.027000  5.900000
0.072700  5.800000
0.090700  5.800000
0.069000  5.700000
0.036700  5.900000
-0.003000  5.600000
-0.033000  6.000000
-0.016500  5.600000
-0.009800  5.800000
0.008200  5.800000
0.099000  5.500000
0.180000  5.900000
0.209200  5.600000
0.191200  5.600000
0.144700  5.800000
0.048700  5.500000
-0.097500  5.600000
-0.253500  5.400000
-0.432800  5.500000
-0.477000  5.300000
-0.358500  5.300000
-0.213000  5.600000
-0.120800  5.100000
-0.106500  5.400000
-0.048000  5.300000
0.021700  5.000000
0.108700  5.300000
0.177000  5.100000
0.177700  5.000000
0.186700  5.200000
0.171000  4.900000
0.153700  4.800000
0.097500  4.900000
0.008200  4.800000
-0.081800  4.600000
-0.159800  4.800000
-0.127500  4.800000
-0.050300  4.500000
-0.001500  4.700000
0.049500  4.600000
0.097500  4.200000
0.159000  4.700000
0.178500  4.400000
0.149200  4.400000
0.110200  4.400000
0.020200  4.000000
-0.063000  4.200000
-0.108800  4.100000
-0.155300  4.000000
-0.147000  4.100000
-0.076500  3.900000
-0.029300  4.000000
0.030700  3.800000
0.078000  4.000000
0.087700  3.900000
0.114700  3.600000
0.101200  3.900000
0.066700  3.600000
0.027000  3.700000
0.001500  3.600000
0.004500  3.500000
-0.020300  3.600000
-0.092300  3.600000
-0.166500  3.400000
-0.138800  3.500000
-0.042000  3.500000
-0.003800  3.700000
0.002200  3.100000
0.048000  3.500000
0.140200  3.200000
0.306700  3.300000
0.414000  3.400000
0.421500  3.200000
0.421500  3.000000
0.324700  3.300000
0.081700  3.000000
-0.325500  3.100000
-0.768000  2.900000
-0.915800  2.900000
-0.672000  3.000000
-0.340600  3.000000
-0.199500  3.000000
-0.044300  2.900000
0.143200  3.000000
0.216000  3.000000
0.284200  2.800000
0.300700  3.000000
0.276700  2.800000
0.183700  2.800000
0.005200  3.000000
-0.237000  2.600000
-0.413300  3.000000
-0.291800  2.800000
-0.069100  2.800000
0.021700  2.700000
0.036700  2.900000
0.050200  2.800000
0.061500  2.700000
0.078000  2.800000
0.114700  3.000000
0.151500  2.600000
0.142500  3.100000
0.123000  2.700000
0.140200  3.000000
0.141000  2.800000
0.120000  2.700000
0.060000  2.800000
-0.051100  2.700000
-0.111800  2.500000
-0.093000  3.100000
-0.092300  2.600000
-0.078000  2.600000
-0.011300  2.700000
0.023200  2.800000
0.068200  2.600000
0.123000  2.600000
0.126000  2.800000
0.135700  2.700000
0.152200  2.700000
0.129000  2.800000
0.144000  2.500000
0.186700  2.700000
0.106500  2.600000
0.040500  2.400000
-0.051100  2.900000
-0.268500  2.300000
-0.410300  2.500000
-0.405100  2.800000
-0.308300  2.600000
-0.276800  2.600000
-0.258800  2.500000
-0.166500  2.800000
-0.044300  2.400000
0.012700  2.700000
0.042700  2.600000
0.129000  2.500000
0.245200  2.900000
0.394500  2.500000
0.456700  2.700000
0.484500  2.700000
0.487500  2.600000
0.396000  2.700000
0.206200  2.600000
-0.141100  2.600000
-0.483800  2.600000
-0.587300  2.500000
-0.456800  2.700000
-0.345800  2.200000
-0.390800  2.600000
-0.399800  2.500000
-0.288100  2.400000
-0.152300  2.500000
0.006700  2.600000
0.111000  2.400000
0.125200  2.800000
0.176200  2.400000
0.247500  2.600000
0.255700  2.600000
0.182200  2.500000
0.089200  2.400000
0.038200  2.600000
0.012700  2.600000
-0.087800  2.300000
-0.178500  2.400000
-0.100600  2.600000
0.039000  2.200000
0.120000  2.600000
0.177700  2.300000
0.198700  2.200000
0.166500  2.500000
0.123700  2.100000
0.062200  2.400000
0.022500  2.300000
0.054700  2.200000
0.063700  2.400000
0.032200  2.400000
0.056200  2.300000
0.051700  2.300000
-0.010500  2.200000
-0.124500  2.200000
-0.240000  2.200000
-0.237800  2.400000
-0.178500  2.100000
-0.094500  2.100000
-0.046500  2.300000
-0.070600  2.100000
-0.078000  2.200000
-0.035300  2.400000
0.010500  2.000000
0.030000  2.300000
0.055500  2.200000
0.089200  2.300000
0.142500  2.200000
0.240000  2.400000
0.284200  2.200000
0.283500  2.100000
0.211500  2.200000
-0.003800  2.100000
-0.225000  2.000000
-0.321800  2.400000
-0.291800  1.800000
-0.230300  2.200000
-0.127500  2.100000
-0.078000  1.900000
-0.077300  2.200000
-0.027800  2.100000
0.031500  2.200000
0.144700  2.100000
0.270700  2.000000
0.399000  2.200000
0.459000  1.800000
0.399000  2.300000
0.262500  1.900000
0.051700  2.000000
-0.184500  2.100000
-0.423800  1.800000
-0.613500  2.100000
-0.672800  1.900000
-0.495000  1.900000
-0.214500  2.100000
-0.062300  1.800000
0.024700  1.800000
0.091500  2.100000
0.195000  2.000000
0.342700  2.000000
0.380200  2.000000
0.328500  2.200000
0.247500  1.700000
0.119200  2.200000
-0.012000  1.900000
-0.202600  1.700000
-0.384000  2.000000
-0.323300  1.900000
-0.133500  1.800000
-0.064500  2.200000
0.006700  1.800000
0.071200  2.100000
0.067500  1.900000
0.095200  1.900000
0.121500  1.900000
0.142500  1.900000
0.090700  2.100000
0.007500  1.700000
-0.042000  2.000000
-0.061500  2.000000
-0.031500  1.800000
0.012000  2.100000
-0.012000  1.700000
-0.073500  1.900000
-0.091500  1.800000
-0.060800  1.800000
0.028500  2.100000
0.082500  1.800000
0.129700  1.800000
0.201000  1.800000
0.267000  1.700000
0.290200  1.900000
0.227200  1.700000
0.081000  2.000000
-0.139600  1.700000
-0.217500  2.000000
-0.138800  2.000000
-0.108800  1.700000
-0.141800  2.100000
-0.218300  1.600000
-0.303000  1.700000
-0.217500  1.800000
-0.098300  1.800000
-0.087800  1.900000
-0.084000  1.700000
-0.078800  1.800000
0.057000  1.800000
0.186700  1.900000
0.232500  2.100000
0.361500  1.600000
0.434200  2.000000
0.396700  1.800000
0.243700  1.800000
0.036000  1.900000
-0.044300  1.700000
-0.091500  1.700000
-0.351800  1.900000
-0.570800  1.500000
-0.421500  1.900000
-0.235500  1.500000
-0.150800  1.800000
-0.126000  1.800000
-0.052500  1.700000
0.103500  1.700000
0.264700  1.700000
0.434200  2.000000
0.504700  1.800000
0.540000  1.800000
0.483700  1.800000
0.339700  1.500000
0.123700  1.800000
-0.223500  1.500000
-0.626300  1.500000
-0.900800  1.800000
-0.864800  1.400000
-0.591000  1.800000
-0.259500  1.700000
-0.114000  1.600000
-0.008300  1.700000
0.112500  1.700000
0.235500  2.100000
0.438000  1.500000
0.564700  1.900000
0.645700  1.700000
0.621000  1.600000
0.489700  1.900000
0.246000  1.500000
-0.120800  1.700000
-0.430500  1.600000
-0.637600  1.400000
-0.638300  1.700000
-0.511600  1.600000
-0.391500  1.500000
-0.196500  1.800000
-0.090000  1.500000
0.072700  1.700000
0.249700  1.400000
0.338200  1.800000
0.537000  1.500000
0.624700  1.600000
0.532500  1.600000
0.333000  1.300000
0.046500  1.400000
-0.269300  1.600000
-0.462800  1.200000
-0.691500  1.500000
-0.783000  1.100000
-0.419300  1.400000
-0.199500  1.400000
-0.072800  1.400000
0.061500  1.500000
0.054000  1.300000
0.114700  1.500000
0.115500  1.300000
0.147700  1.300000
0.186700  1.600000
0.213000  1.300000
0.246700  1.500000
0.252700  1.300000
0.270700  1.300000
0.205500  1.500000
0.117700  1.100000
0.017200  1.500000
-0.027000  1.300000
0.040500  1.300000
0.066700  1.300000
0.027000  1.300000
0.023200  1.500000
0.045700  1.200000
0.033000  1.400000
-0.008300  1.200000
-0.048000  1.300000
-0.059300  1.300000
-0.042000  1.000000
0.031500  1.500000
0.051700  1.200000
-0.021800  1.200000
-0.027800  1.300000
0.006700  1.300000
0.054000  1.300000
0.153000  1.200000
0.177700  1.200000
0.111700  1.100000
0.006700  1.000000
-0.202600  1.400000
-0.390800  0.900000
-0.347300  1.200000
-0.221300  1.300000
-0.264800  0.900000
-0.314300  1.200000
-0.308300  1.300000
-0.271500  1.000000
-0.107300  1.400000
0.070500  1.000000
0.268500  1.400000
0.428200  1.300000
0.460500  1.300000
0.525000  1.300000
0.510700  1.400000
0.314200  1.300000
0.012700  1.000000
-0.246000  1.300000
-0.360000  1.200000
-0.414800  0.900000
-0.545300  1.300000
-0.704300  1.000000
-0.509300  1.300000
-0.108800  1.200000
0.066700  1.000000
0.196500  1.500000
0.269200  1.100000
0.253500  1.300000
0.240700  1.300000
0.080200  1.200000
-0.070600  1.300000
-0.101300  1.200000
-0.042800  1.500000
0.057700  1.200000
0.156000  1.400000
0.223500  1.500000
0.247500  1.000000
0.304500  1.400000
0.304500  1.300000
0.211500  1.300000
0.120700  1.300000
0.034500  1.200000
-0.021000  1.300000
-0.088500  1.300000
-0.204800  1.500000
-0.262500  1.300000
-0.259500  1.400000
-0.246000  1.600000
-0.191300  1.000000
-0.074300  1.300000
0.101200  1.600000
0.312000  1.300000
0.460500  1.400000
0.522700  1.400000
0.495000  1.200000
0.330700  1.500000
0.019500  1.100000
-0.349600  1.300000
-0.531000  1.500000
-0.599300  1.200000
-0.549800  1.200000
-0.329300  1.300000
-0.186000  1.300000
-0.148500  1.300000
-0.172600  1.200000
-0.172600  1.500000
-0.078800  1.100000
0.031500  1.300000
0.104200  1.300000
0.187500  1.100000
0.240000  1.500000
0.231000  1.100000
0.201700  1.500000
0.192700  1.300000
0.202500  0.900000
0.102700  1.300000
-0.020300  1.300000
-0.073500  1.300000
-0.102800  1.000000
-0.120000  1.400000
-0.135800  1.300000
-0.074300  0.900000
-0.014300  1.300000
0.050200  1.200000
0.121500  1.200000
0.153700  1.300000
0.177000  1.100000
0.156000  1.100000
0.129000  1.300000
0.035200  0.900000
-0.061500  1.300000
-0.132000  1.200000
-0.135800  1.000000
-0.022500  1.000000
0.034500  1.200000
0.057000  1.300000
0.105700  0.800000
0.081700  1.100000
0.053200  1.100000
0.062200  0.900000
0.014200  1.200000
-0.032300  0.700000
-0.021000  1.100000
0.069700  1.100000
0.230200  1.000000
0.289500  1.200000
0.176200  0.900000
-0.023300  0.900000
-0.284300  0.900000
-0.373500  1.000000
-0.303000  0.900000
-0.332300  0.900000
-0.272300  1.300000
-0.093000  0.800000
0.008200  1.100000
0.006000  1.000000
-0.202600  0.700000
-0.394500  1.100000
-0.277600  0.900000
-0.035300  0.900000
0.025500  1.300000
-0.003000  0.900000
0.038200  1.000000
0.095200  1.100000
0.139500  1.100000
0.172500  1.100000
0.264000  1.000000
0.350200  1.300000
0.511500  1.100000
0.573000  1.200000
0.423000  1.300000
0.236200  1.000000
-0.009800  1.100000
-0.255800  1.100000
-0.448500  0.900000
-0.576100  1.200000
-0.519000  0.800000
-0.222000  1.100000
-0.042000  1.000000
0.029200  1.100000
0.090000  1.100000
0.020200  0.900000
-0.048000  1.300000
-0.075000  1.100000
-0.027800  0.900000
-0.013500  1.200000
0.030700  0.800000
0.131200  1.200000
0.178500  1.100000
0.214500  0.900000
0.160500  1.200000
0.169500  0.900000
0.191200  1.200000
0.144000  1.200000
0.075000  1.100000
-0.094500  0.900000
-0.196500  0.900000
-0.159800  1.100000
-0.132000  1.000000
-0.136500  0.900000
-0.117800  1.200000
-0.079500  0.900000
0.057700  1.100000
0.193500  1.000000
0.263200  0.900000
0.357700  1.100000
0.438000  1.000000
0.423000  0.900000
0.174000  1.200000
-0.193500  0.800000
-0.546000  0.900000
-0.723000  1.000000
-0.619600  0.900000
-0.435800  0.900000
-0.272300  0.900000
-0.140300  1.200000
-0.032300  0.900000
0.029200  1.000000
0.066000  1.000000
0.116200  0.900000
0.231700  1.400000
0.384700  0.900000
0.483000  1.100000
0.511500  1.200000
0.462700  0.800000
0.297000  1.200000
-0.021800  0.900000
-0.429800  0.900000
-0.696800  1.000000
-0.573100  1.100000
-0.282800  1.300000
-0.183000  0.900000
-0.124500  1.100000
-0.021000  1.200000
0.021700  0.600000
0.082500  1.100000
0.131200  0.900000
0.246000  1.100000
0.383200  1.300000
0.408700  1.000000
0.425200  1.100000
0.386200  1.200000
0.264700  0.900000
0.030700  0.900000
-0.309000  0.900000
-0.547500  0.900000
-0.548300  0.700000
-0.433500  0.900000
-0.258000  1.000000
-0.039000  0.800000
0.001500  1.100000
0.027700  0.900000
0.099700  0.900000
0.126700  1.300000
0.172500  0.700000
0.176200  1.100000
0.237000  0.900000
0.259500  0.900000
0.183000  0.900000
0.084000  0.900000
-0.043600  0.900000
-0.130500  0.800000
-0.153800  0.900000
-0.165000  1.100000
-0.168800  0.700000
-0.111800  1.000000
-0.088500  0.800000
-0.062300  0.800000
0.044200  1.100000
0.186000  0.700000
0.384000  1.100000
0.471000  0.900000
0.439500  0.900000
0.378700  1.100000
0.207000  1.000000
-0.115500  0.800000
-0.593300  0.800000
-0.915800  0.900000
-0.722300  0.700000
-0.331500  0.800000
-0.177800  1.000000
-0.084800  0.700000
-0.001500  1.200000
0.050200  0.700000
0.152200  0.900000
0.176200  0.900000
0.198000  0.900000
0.189000  0.900000
0.159000  1.100000
0.087000  0.800000
-0.016500  0.900000
-0.120000  0.800000
-0.147000  0.900000
0.114700  0.800000
0.314200  1.000000
0.329200  0.900000
0.313500  0.800000
0.263200  0.900000
0.181500  0.900000
-0.045000  0.900000
-0.274500  1.100000
-0.385500  0.700000
-0.354000  1.100000
-0.255000  0.800000
-0.264800  0.800000
-0.196500  1.000000
-0.069100  0.900000
-0.054000  0.900000
0.022500  0.900000
0.082500  1.000000
0.128200  1.100000
0.239200  0.800000
0.266200  1.200000
0.246700  0.700000
0.217500  1.100000
0.169500  1.000000
0.059200  0.700000
-0.108000  1.300000
-0.162000  0.700000
-0.053300  1.000000
0.012700  1.100000
-0.042000  0.900000
-0.111800  1.000000
-0.117800  0.800000
-0.022500  0.900000
0.011200  0.900000
-0.096800  0.800000
-0.212300  1.100000
-0.198000  0.800000
-0.054800  1.000000
0.021700  1.100000
0.153700  0.900000
0.369000  1.200000
0.455200  1.100000
0.435000  1.000000
0.352500  1.200000
0.257200  0.600000
0.018000  0.900000
-0.330800  1.000000
-0.555800  1.000000
-0.447800  0.800000
-0.170300  1.000000
-0.104300  1.200000
-0.151500  0.800000
-0.246000  0.900000
-0.333000  1.000000
-0.330800  0.700000
-0.262500  1.100000
-0.063000  0.800000
0.082500  0.900000
0.112500  1.300000
0.210000  0.900000
0.315000  1.200000
0.418500  1.100000
0.482200  1.000000
0.467200  1.000000
0.345000  1.000000
0.153700  1.100000
-0.079500  0.800000
-0.310500  1.000000
-0.324800  1.100000
-0.380300  0.900000
-0.463500  1.200000
-0.334500  0.900000
-0.244500  0.900000
-0.073500  1.100000
0.115500  0.900000
0.186700  1.100000
0.290200  1.100000
0.386200  1.100000
0.440200  1.100000
0.328500  0.900000
0.133500  1.000000
-0.066800  0.800000
-0.244500  1.100000
-0.335300  0.900000
-0.389300  0.700000
-0.294800  1.000000
-0.136500  0.900000
-0.025600  0.900000
0.078000  1.200000
0.168700  0.700000
0.270700  1.200000
0.330700  0.900000
0.357000  0.900000
0.290200  1.100000
0.097500  0.900000
-0.120000  0.900000
-0.325500  0.900000
-0.390800  1.000000
-0.330800  0.900000
-0.270800  0.800000
-0.134300  1.200000
-0.021800  0.800000
-0.009100  1.000000
0.046500  1.000000
0.120700  0.700000
0.248200  1.100000
0.381700  0.700000
0.435000  0.900000
0.480700  1.100000
0.437200  0.900000
0.260200  0.900000
-0.031500  0.800000
-0.393000  1.000000
-0.621000  0.700000
-0.635300  0.700000
-0.511600  1.000000
-0.357000  0.700000
-0.207800  1.100000
-0.095300  0.900000
0.020200  0.800000
0.105700  1.000000
0.210700  0.900000
0.393000  0.800000
0.429700  1.300000
0.387000  0.800000
0.343500  0.900000
0.244500  0.700000
0.032200  0.700000
-0.357000  0.700000
-0.597000  0.700000
-0.424500  1.000000
-0.203300  0.800000
-0.140300  0.900000
-0.081800  1.000000
-0.056300  0.700000
-0.033000  1.200000
-0.006800  0.700000
0.031500  0.800000
0.102700  1.200000
0.198000  0.900000
0.274500  1.000000
0.278200  0.900000
0.303000  1.000000
0.320200  0.900000
0.258700  0.900000
0.102000  1.200000
-0.058500  0.700000
-0.126800  1.200000
-0.249800  0.900000
-0.387000  0.700000
-0.401300  1.000000
-0.337500  0.500000
-0.207000  0.900000
-0.156800  1.000000
-0.083300  0.600000
0.069000  0.800000
0.086200  0.900000
0.121500  0.900000
0.136500  0.800000
0.160500  0.900000
0.196500  1.000000
0.171000  0.500000
0.170200  0.900000
0.125200  0.800000
0.081700  0.800000
0.001500  0.800000
-0.051100  0.800000
-0.005300  0.800000
0.006000  1.000000
-0.040500  0.600000
-0.039000  0.900000
-0.012000  0.700000
0.039000  0.700000
0.145500  0.800000
0.155200  0.900000
0.121500  0.700000
0.117000  0.700000
0.067500  0.900000
0.042000  1.000000
-0.000800  0.600000
-0.120800  0.900000
-0.117800  0.700000
-0.102800  0.700000
-0.191300  0.900000
-0.243800  0.600000
-0.339800  0.900000
-0.306000  0.700000
-0.103500  0.600000
-0.014300  0.900000
0.020200  0.700000
0.065200  0.700000
0.111700  0.700000
0.167200  0.700000
0.130500  0.900000
0.063000  0.700000
-0.024000  0.800000
-0.064500  0.800000
-0.020300  0.700000
-0.012000  0.800000
-0.010500  0.700000
-0.016500  0.600000
-0.019500  1.200000
-0.018800  0.600000
-0.009100  0.900000
0.049500  0.900000
0.083200  0.700000
0.088500  0.900000
0.055500  0.900000
-0.003000  1.100000
-0.032300  0.900000
0.028500  0.800000
0.095200  1.000000
0.065200  0.600000
0.125200  1.000000
0.189700  0.700000
0.159000  0.700000
0.108000  0.800000
-0.006800  0.500000
-0.035300  1.000000
0.065200  0.700000
-0.020300  0.600000
-0.309800  0.700000
-0.494300  0.800000
-0.444000  0.900000
-0.213000  0.800000
-0.071300  0.700000
0.028500  0.900000
0.168000  0.500000
0.213700  1.100000
0.310500  0.700000
0.339700  0.600000
0.278200  1.100000
0.207000  0.800000
0.038200  0.700000
-0.093800  0.900000
-0.187500  0.600000
-0.225000  0.800000
-0.148500  0.700000
-0.171100  0.800000
-0.255000  0.700000
-0.263300  0.700000
-0.246000  0.800000
-0.106500  0.700000
0.021700  0.900000
0.069000  0.800000
0.111000  0.700000
0.142500  1.000000
0.198700  0.700000
0.197200  0.900000
0.155200  0.800000
0.071200  0.700000
-0.021800  1.000000
0.006700  0.900000
0.035200  0.700000
-0.051100  0.900000
-0.114800  0.900000
-0.110300  0.900000
-0.072100  0.600000
-0.029300  1.000000
-0.016500  0.700000
-0.010500  0.800000
0.040500  0.900000
0.117700  0.500000
0.122200  1.100000
0.104200  0.800000
0.123000  0.600000
0.135700  0.900000
0.097500  0.700000
-0.025600  0.800000
-0.120000  0.800000
-0.116300  0.700000
-0.109500  0.700000
-0.086300  0.500000
-0.036100  0.900000
-0.014300  0.600000
0.007500  0.900000
0.012700  0.900000
0.022500  0.700000
0.066000  0.900000
0.126700  0.900000
0.156000  0.600000
0.162700  0.900000
0.206200  0.600000
0.188200  0.700000
0.050200  0.800000
-0.129000  0.700000
-0.185300  0.500000
-0.090000  0.700000
-0.048000  0.800000
-0.111800  0.600000
-0.190500  0.600000
-0.275300  0.800000
-0.270800  0.600000
-0.153800  0.700000
-0.066800  0.800000
-0.027800  0.500000
0.005200  0.900000
0.033000  0.600000
0.060000  0.700000
0.067500  0.800000
0.071200  0.700000
0.072700  0.700000
0.086200  0.700000
0.123700  0.900000
0.120700  0.800000
0.105000  0.600000
0.086200  0.900000
0.050200  0.400000
-0.018100  0.700000
-0.094500  0.700000
-0.104300  0.500000
-0.051100  0.700000
-0.006800  0.800000
0.003000  0.600000
0.026200  0.900000
0.043500  0.700000
0.075000  0.600000
0.100500  0.600000
0.106500  0.700000
0.107200  0.700000
0.083200  0.600000
0.049500  0.900000
-0.036800  0.500000
-0.176300  0.600000
-0.282100  0.800000
-0.213800  0.500000
-0.051100  0.900000
0.102700  0.800000
0.262500  0.800000
0.284200  1.100000
0.261700  0.700000
0.294000  0.900000
0.219700  0.700000
0.023200  0.800000
-0.312000  0.700000
-0.679500  0.400000
-0.680300  0.900000
-0.411800  0.600000
-0.244500  0.900000
-0.084000  0.800000
0.064500  0.700000
0.234700  1.000000
0.404200  0.700000
0.446200  0.800000
0.495000  0.900000
0.471000  0.700000
0.291700  0.900000
-0.057000  0.800000
-0.429000  0.700000
-0.628600  0.800000
-0.606000  0.800000
-0.393000  1.000000
-0.210000  0.700000
-0.167300  0.900000
-0.106500  0.800000
0.026200  0.800000
0.070500  1.100000
0.111000  0.700000
0.135000  0.700000
0.138700  0.900000
0.167200  0.600000
0.156000  1.100000
0.169500  0.700000
0.167200  0.900000
0.153700  0.800000
0.136500  0.700000
0.091500  0.900000
0.051700  0.600000
0.059200  0.900000
0.061500  0.900000
0.010500  0.500000
-0.041300  1.000000
-0.113300  0.600000
-0.130500  0.800000
-0.057800  0.900000
-0.005300  0.600000
0.023200  1.000000
0.057000  0.700000
0.066700  0.700000
0.072700  0.800000
0.095200  0.900000
0.114000  0.700000
0.070500  0.700000
-0.014300  0.800000
-0.075800  0.900000
-0.121500  0.600000
-0.101300  1.100000
-0.060800  0.700000
-0.054000  0.800000
-0.057800  0.900000
-0.048800  0.700000
-0.016500  0.700000
0.000700  0.800000
0.012000  0.600000
0.024000  1.000000
0.021700  0.900000
0.009700  0.900000
0.023200  0.900000
0.086200  0.800000
0.222000  0.900000
0.372000  0.700000
0.395200  1.100000
0.405000  0.900000
0.459700  0.600000
0.369700  0.900000
0.029200  0.500000
-0.495000  0.800000
-0.804100  0.700000
-0.678100  0.500000
-0.567100  0.900000
-0.696100  0.600000
-0.636000  0.700000
-0.338300  0.800000
-0.081000  0.800000
0.011200  1.000000
0.076500  0.700000
0.133500  0.900000
0.144000  0.700000
0.176200  0.700000
0.168700  0.900000
0.179200  0.700000
0.170200  0.900000
0.156000  0.800000
0.148500  0.700000
0.131200  0.800000
0.129000  0.700000
0.106500  0.800000
0.099700  0.900000
0.120000  0.900000
0.177000  0.800000
0.195000  0.700000
0.205500  0.900000
0.259500  0.700000
0.264700  0.700000
0.186000  1.000000
0.023200  0.700000
-0.082500  0.800000
-0.159800  0.900000
-0.387000  0.500000
-0.508600  0.900000
-0.420800  0.700000
-0.280600  0.600000
-0.130500  0.900000
-0.039000  0.800000
0.042700  0.900000
0.102700  0.900000
0.114000  0.900000
0.140200  0.900000
0.174700  0.700000
0.195000  1.100000
0.172500  0.600000
0.108000  0.900000
0.030000  0.900000
-0.056300  0.700000
-0.132000  1.000000
-0.182300  0.700000
-0.220500  0.900000
-0.171800  0.900000
-0.072800  0.800000
-0.046500  0.800000
-0.024000  0.900000
0.019500  0.800000
0.048700  0.900000
0.057000  0.700000
0.054700  1.000000
0.056200  0.700000
0.053200  0.900000
0.054000  0.800000
0.045700  0.700000
0.046500  1.000000
0.078000  0.900000
0.133500  0.500000
0.163500  1.200000
0.158200  0.700000
0.156000  0.900000
0.129000  0.800000
0.050200  0.900000
-0.102100  0.900000
-0.241500  0.600000
-0.264800  0.900000
-0.238500  0.800000
-0.174800  0.700000
-0.101300  0.900000
-0.057800  0.600000
0.004500  1.000000
0.034500  0.800000
0.054000  0.700000
0.072700  1.100000
0.068200  0.700000
0.072700  1.000000
0.072000  0.700000
0.072700  0.800000
0.028500  0.600000
-0.015800  0.700000
0.018000  1.000000
0.073500  0.600000
0.105000  0.900000
0.090000  0.900000
-0.030800  0.600000
-0.177800  0.900000
-0.243800  0.600000
-0.227300  0.700000
-0.123000  0.900000
-0.029300  0.600000
0.009700  0.800000
0.039000  0.900000
0.049500  0.700000
0.054700  0.900000
0.051700  0.900000
0.042700  0.800000
0.033700  0.700000
0.038200  0.900000
0.076500  0.800000
0.129700  0.700000
0.156000  0.900000
0.171000  0.900000
0.189000  0.600000
0.147700  1.000000
0.004500  0.700000
-0.208500  0.800000
-0.341300  0.800000
-0.282100  0.700000
-0.126800  0.800000
-0.058500  0.900000
-0.042800  0.700000
0.020200  0.800000
0.029200  0.800000
0.029200  0.900000
0.059200  0.700000
0.075000  1.000000
0.066700  0.700000
-0.005300  0.800000
-0.065300  1.000000
-0.023300  0.700000
0.036700  0.900000
0.042700  0.700000
0.027000  0.900000
-0.017300  0.900000
-0.015800  0.900000
0.039000  0.800000
0.048000  0.900000
0.030000  1.000000
-0.022500  0.900000
-0.080300  0.500000
-0.098300  1.100000
-0.084800  0.800000
-0.021000  0.900000
0.060700  1.000000
0.076500  0.700000
0.040500  0.700000
0.041200  0.900000
0.053200  0.800000
0.042000  1.000000
0.012700  0.700000
-0.036100  0.900000
-0.076500  0.800000
-0.027800  0.800000
0.033000  0.900000
0.035200  0.600000
0.061500  0.900000
0.074200  1.000000
0.056200  0.600000
0.064500  1.300000
0.102700  0.700000
0.075000  0.800000
-0.024000  0.900000
-0.153000  0.500000
-0.262500  0.900000
-0.208500  0.900000
-0.105800  0.800000
-0.060000  0.800000
-0.015000  0.900000
0.013500  0.900000
0.064500  0.700000
0.132000  1.100000
0.155200  1.000000
0.157500  0.700000
0.146200  1.100000
0.090000  0.800000
0.009700  0.700000
-0.094500  1.000000
-0.189800  0.800000
-0.176300  0.900000
-0.093000  1.300000
-0.061500  0.800000
-0.019500  0.900000
0.024000  0.800000
0.004500  0.900000
-0.009800  0.900000
-0.058500  0.900000
-0.081800  1.100000
-0.033800  0.800000
0.001500  0.900000
0.024700  1.000000
0.070500  0.800000
0.117700  1.100000
0.144700  0.900000
0.170200  1.000000
0.189000  1.200000
0.185200  0.900000
0.109500  1.200000
-0.024000  0.900000
-0.137300  0.900000
-0.156000  0.900000
-0.101300  0.900000
-0.063800  1.100000
-0.076500  0.700000
-0.114000  1.000000
-0.108800  1.000000
-0.092300  0.700000
-0.078800  1.300000
-0.033000  0.900000
-0.001500  0.900000
0.015000  1.100000
0.027700  0.900000
0.055500  0.900000
0.111700  1.200000
0.174700  0.900000
0.228700  0.900000
0.249700  0.900000
0.258000  0.900000
0.164200  0.700000
-0.064500  1.000000
-0.258800  0.900000
-0.377300  0.800000
-0.385500  0.900000
-0.267000  0.900000
-0.148500  0.700000
-0.057800  1.100000
0.006700  0.700000
0.020200  0.900000
0.036700  0.900000
0.049500  0.700000
0.078000  0.900000
0.108700  0.900000
0.120700  0.900000
0.130500  0.900000
0.123000  0.600000
0.118500  0.900000
0.090000  0.700000
0.020200  0.900000
-0.062300  0.900000
-0.110300  0.700000
-0.120000  1.100000
-0.096800  0.700000
-0.017300  0.800000
0.023200  1.000000
0.052500  0.800000
0.081700  1.000000
0.084700  1.000000
0.093000  0.900000
0.086200  1.000000
0.084000  0.900000
0.030700  1.200000
-0.057800  0.700000
-0.117000  1.000000
-0.146300  0.900000
-0.153800  0.800000
-0.119300  0.900000
-0.039000  1.200000
0.000700  0.900000
0.027700  1.200000
0.059200  0.700000
0.089200  1.200000
0.108000  0.900000
0.112500  0.900000
0.147700  0.900000
0.145500  0.900000
0.078700  1.100000
-0.045800  0.900000
-0.174800  0.900000
-0.183000  1.200000
-0.106500  0.700000
-0.077300  1.100000
-0.107300  1.000000
-0.127500  0.900000
-0.106500  1.300000
-0.057800  0.900000
0.007500  1.000000
0.054000  1.100000
0.065200  0.900000
0.077200  0.900000
0.086200  1.100000
0.078700  1.100000
0.063700  0.900000
0.039000  1.100000
0.028500  1.200000
0.022500  0.900000
-0.001500  1.100000
-0.019500  1.000000
-0.044300  0.900000
-0.051800  1.000000
-0.027800  0.800000
-0.017300  1.000000
-0.039000  1.200000
-0.036800  0.900000
-0.009100  1.200000
0.004500  1.100000
0.027700  0.900000
0.036700  1.000000
0.039000  1.100000
0.060000  1.100000
0.098200  0.800000
0.105000  1.100000
0.060700  1.200000
0.031500  0.800000
0.030000  1.200000
0.018000  0.900000
-0.031500  0.900000
-0.070600  1.100000
-0.081800  0.800000
-0.085600  1.200000
-0.047300  1.000000
-0.010500  0.900000
-0.011300  1.000000
-0.015000  0.900000
-0.003000  1.200000
0.019500  0.700000
0.024000  1.100000
0.008200  0.900000
0.009700  0.700000
0.012700  1.100000
0.003000  0.800000
-0.014300  0.900000
-0.033000  0.900000
-0.033800  0.800000
-0.035300  1.000000
-0.047300  1.000000
-0.018100  0.900000
0.033000  0.900000
0.044200  1.000000
0.042000  0.800000
0.024000  0.700000
-0.018800  1.100000
-0.027800  1.100000
0.005200  0.900000
0.012000  1.200000
-0.008300  1.100000
-0.025600  0.900000
-0.036800  1.300000
-0.019500  0.800000
-0.001500  1.000000
0.016500  1.100000
0.015700  0.900000
0.000000  1.100000
-0.001500  1.100000
-0.012800  1.100000
-0.025600  1.000000
-0.008300  0.900000
0.027700  1.300000
0.019500  1.000000
0.001500  1.300000
-0.011300  1.000000
-0.013500  1.000000
0.003000  1.300000
-0.002300  0.900000
0.013500  1.200000
0.027700  1.100000
0.042000  1.100000
0.044200  1.100000
0.022500  1.200000
0.031500  1.100000
0.053200  1.000000
0.049500  1.100000
0.031500  1.300000
0.004500  0.900000
-0.036100  1.300000
-0.062300  0.900000
-0.076500  0.900000
-0.084000  1.200000
-0.086300  0.900000
-0.057000  1.100000
0.012700  1.200000
0.054700  0.900000
0.084000  1.300000
0.084700  0.800000
0.058500  1.100000
0.037500  1.100000
-0.008300  1.100000
-0.060800  1.000000
-0.105000  0.900000
-0.081000  1.300000
-0.006800  1.300000
0.027700  1.100000
0.041200  1.300000
0.038200  0.900000
0.030700  1.200000
0.027700  1.200000
0.006700  0.900000
-0.021800  1.200000
-0.074300  0.900000
-0.096800  1.100000
-0.064500  1.100000
-0.020300  1.000000
0.020200  1.100000
0.056200  1.000000
0.087700  1.300000
0.120700  1.000000
0.153000  1.000000
0.159000  1.200000
0.131200  0.800000
0.045700  1.200000
-0.090800  1.100000
-0.176300  0.900000
-0.186800  1.100000
-0.180800  1.100000
-0.159800  1.000000
-0.131300  1.200000
-0.070600  0.900000
0.001500  0.900000
0.019500  0.900000
0.045000  1.100000
0.054000  0.900000
0.056200  0.900000
0.055500  1.200000
0.033000  0.900000
0.040500  1.000000
0.048000  1.100000
0.081700  0.900000
0.109500  1.100000
0.111700  0.900000
0.083200  0.900000
0.019500  1.300000
-0.032300  0.900000
-0.123800  0.900000
-0.178500  0.900000
-0.112500  1.000000
-0.043600  1.100000
-0.019500  0.800000
-0.001500  1.200000
-0.003800  1.100000
-0.012800  1.200000
-0.011300  1.200000
0.002200  0.700000
0.036000  1.200000
0.048000  0.900000
0.050200  0.900000
0.059200  1.100000
0.063700  1.200000
0.071200  0.900000
0.051700  1.100000
-0.010500  1.200000
-0.071300  1.000000
-0.076500  0.900000
-0.042800  1.200000
-0.027800  0.900000
-0.030000  0.900000
-0.017300  1.100000
-0.003800  0.900000
0.010500  1.100000
0.024000  1.200000
0.033000  0.700000
0.042000  1.200000
0.055500  0.900000
0.078000  1.000000
0.079500  1.200000
0.035200  0.900000
-0.027000  0.900000
-0.051800  0.900000
-0.065300  1.300000
-0.065300  1.000000
-0.048800  0.900000
-0.039800  1.300000
-0.027800  0.900000
-0.016500  1.000000
-0.004600  1.300000
0.030700  1.000000
0.075000  1.300000
0.081700  0.900000
0.081000  1.000000
0.095200  1.300000
0.101200  1.000000
0.056200  1.000000
-0.063000  1.000000
-0.181500  1.100000
-0.201800  0.900000
-0.121500  0.900000
-0.050300  1.200000
-0.006800  0.900000
0.021000  1.200000
0.021700  1.000000
0.021000  0.900000
0.023200  1.200000
0.027700  1.000000
0.016500  0.900000
-0.004600  1.400000
-0.024000  0.800000
-0.041300  1.100000
-0.018100  0.900000
0.000700  1.000000
-0.014300  1.000000
-0.012000  1.100000
-0.000800  1.200000
0.020200  0.900000
0.020200  1.100000
0.016500  1.300000
0.045700  0.900000
0.069000  1.400000
0.093700  1.100000
0.129000  1.100000
0.197200  1.300000
0.217500  1.000000
0.176200  1.400000
0.076500  1.200000
-0.098300  1.200000
-0.225000  1.000000
-0.299300  1.200000
-0.338300  1.300000
-0.295500  0.900000
-0.167300  1.400000
-0.039800  1.100000
-0.000800  1.100000
0.018000  1.400000
0.033000  0.900000
0.036700  1.300000
0.053200  1.200000
0.060700  1.100000
0.075700  1.400000
0.090000  1.100000
0.112500  1.200000
0.137200  1.300000
0.126700  1.100000
0.114000  1.200000
0.067500  0.900000
-0.012800  1.300000
-0.078800  1.000000
-0.133500  0.900000
-0.154500  1.300000
-0.108800  0.900000
-0.066800  1.000000
-0.035300  1.300000
0.003700  1.000000
0.012700  1.300000
0.027000  1.100000
0.031500  1.100000
0.035200  1.000000
0.054700  1.300000
0.075000  1.200000
0.086200  1.100000
0.072700  1.100000
0.064500  1.000000
0.063000  0.900000
0.042700  1.300000
-0.002300  0.900000
-0.053300  1.200000
-0.108000  1.000000
-0.098300  0.900000
-0.101300  1.300000
-0.159000  1.000000
-0.105800  1.100000
-0.021800  1.100000
0.009700  1.200000
0.024000  1.000000
0.032200  1.100000
0.034500  1.200000
0.036700  1.000000
0.044200  1.000000
0.042000  1.300000
0.045000  0.900000
0.040500  1.300000
0.045000  1.300000
0.045000  1.100000
0.035200  1.300000
0.033000  1.200000
0.029200  1.000000
0.039000  1.300000
0.043500  1.000000
0.013500  1.200000
-0.041300  1.200000
-0.059300  1.100000
-0.003000  1.000000
0.027700  1.200000
0.006700  1.300000
0.005200  1.200000
-0.004600  1.300000
-0.027000  1.300000
-0.018100  0.900000
-0.027800  1.500000
-0.081000  0.900000
-0.105000  1.100000
-0.080300  1.300000
-0.042000  0.900000
-0.023300  1.300000
-0.003800  1.200000
0.018000  1.300000
0.024700  1.200000
0.033000  1.300000
0.031500  1.300000
0.027000  0.900000
0.020200  1.400000
0.024700  1.300000
0.036700  0.900000
0.028500  1.400000
0.000000  1.000000
-0.027000  1.300000
-0.019500  1.400000
-0.002300  1.200000
0.020200  1.300000
0.048000  1.300000
0.039000  1.300000
0.014200  1.300000
0.003700  1.300000
0.009700  1.300000
0.006700  1.100000
-0.042000  1.500000
-0.080300  1.200000
-0.081800  1.300000
-0.050300  1.300000
0.000700  1.000000
0.012000  1.200000
0.020200  1.400000
0.008200  1.000000
-0.017300  1.400000
-0.002300  1.200000
0.029200  1.200000
0.046500  1.300000
0.044200  1.100000
0.042000  1.300000
0.051000  1.300000
0.090000  1.400000
0.106500  1.300000
0.087000  1.100000
0.051700  1.500000
0.015700  1.200000
-0.005300  1.400000
-0.051800  1.500000
-0.116300  1.000000
-0.212300  1.500000
-0.263300  1.200000
-0.201100  1.500000
-0.114000  1.500000
-0.027000  1.200000
0.008200  1.300000
0.026200  1.300000
0.039000  1.500000
0.040500  1.400000
0.055500  1.400000
0.054000  1.600000
0.061500  1.300000
0.059200  1.600000
0.054000  1.300000
0.045700  1.300000
0.035200  1.500000
0.032200  1.300000
0.024700  1.400000
0.023200  1.700000
0.017200  1.400000
0.014200  1.400000
0.012000  1.400000
0.010500  1.600000
0.009000  1.600000
0.006000  1.400000
0.004500  1.700000
0.002200  1.500000
0.000000  1.500000
-0.001500  1.700000
-0.001500  1.300000
-0.003000  1.700000
-0.003000  1.500000
-0.003000  1.500000
-0.003000  1.800000
-0.003000  1.400000
-0.001500  1.500000
0.004500  1.700000
0.004500  1.600000
-0.004600  1.600000
-0.004600  1.300000
0.006700  1.800000
0.021000  1.500000
0.015700  1.500000
-0.013500  1.800000
-0.034600  1.300000
-0.036100  1.700000
-0.006800  1.600000
0.018700  1.400000
0.014200  1.700000
0.018700  1.500000
0.010500  1.500000
0.003700  1.700000
-0.014300  1.600000
-0.046500  1.500000
-0.069100  1.600000
-0.081800  1.700000
-0.047300  1.600000
-0.019500  1.500000
-0.012000  1.700000
0.004500  1.700000
0.016500  1.800000
0.033000  1.900000
0.033700  1.500000
0.027700  1.800000
0.003000  1.400000
-0.001500  1.500000
0.005200  1.900000
-0.016500  1.500000
-0.006800  1.800000
0.003000  1.700000
0.012700  1.500000
0.022500  1.900000
0.015000  1.500000
0.021700  1.900000
0.040500  1.500000
0.072700  1.700000
0.064500  1.800000
0.016500  1.600000
-0.030800  1.800000
-0.051800  1.700000
-0.039800  1.800000
-0.042000  2.000000
-0.072800  1.500000
-0.057800  1.800000
-0.009100  1.700000
-0.003800  1.900000
0.001500  1.900000
0.008200  1.700000
0.006000  2.100000
0.009000  1.900000
0.006700  1.800000
0.010500  2.100000
0.008200  1.800000
0.008200  1.800000
0.008200  2.100000
0.006000  1.800000
0.006700  2.100000
0.006000  1.800000
0.006700  1.800000
0.006700  2.000000
0.006700  2.000000
0.005200  2.000000
0.006000  1.800000
0.006000  2.000000
0.008200  2.100000
0.009700  1.800000
0.008200  2.200000
0.015700  1.800000
0.024700  2.000000
0.023200  2.100000
0.021700  1.800000
0.015700  2.200000
0.006000  1.800000
-0.009100  1.900000
-0.035300  2.100000
-0.072800  2.100000
-0.075800  2.000000
-0.034600  2.100000
-0.008300  2.200000
0.010500  2.100000
0.024000  2.000000
0.015700  2.500000
0.007500  2.000000
-0.008300  2.000000
-0.012000  2.400000
-0.002300  2.100000
0.009700  2.200000
0.020200  2.400000
0.037500  2.200000
0.055500  2.300000
0.057000  2.200000
0.057700  2.200000
0.054700  2.200000
0.030700  2.200000
-0.018100  2.200000
-0.059300  2.000000
-0.087800  2.600000
-0.110300  2.200000
-0.071300  2.200000
-0.033800  2.500000
-0.036100  2.100000
-0.024000  2.600000
-0.009100  2.300000
-0.005300  2.300000
-0.016500  2.500000
0.000700  2.200000
0.030000  2.500000
0.040500  2.600000
0.039000  2.600000
0.016500  2.700000
0.046500  2.500000
0.100500  3.000000
0.089200  2.700000
0.040500  2.700000
-0.000800  3.100000
-0.027800  2.800000
-0.039800  3.200000
-0.037500  3.000000
-0.047300  2.900000
-0.059300  3.300000
-0.037500  3.000000
-0.001500  3.100000
0.025500  3.300000
0.042700  3.200000
0.057000  3.300000
0.057000  3.300000
0.018000  3.600000
-0.069800  3.300000
-0.130500  3.400000
-0.106500  3.600000
-0.063000  3.500000
-0.019500  3.600000
0.029200  3.800000
0.057000  3.500000
0.078000  3.700000
0.090000  3.600000
0.096700  3.600000
0.096700  3.900000
0.090000  3.800000
0.084000  3.900000
0.024700  3.900000
-0.069100  3.600000
-0.135000  3.800000
-0.212300  3.600000
-0.215300  3.900000
-0.105800  3.700000
-0.024000  3.800000
0.012000  4.000000
0.026200  3.600000
0.030000  3.900000
0.034500  3.800000
0.036000  3.700000
0.042000  3.700000
0.042000  3.700000
0.035200  3.600000
0.019500  3.700000
0.008200  3.800000
0.027000  3.800000
0.044200  3.600000
0.023200  3.900000
-0.025600  3.600000
-0.038300  3.600000
0.003000  3.800000
0.032200  3.700000
0.042000  3.700000
0.034500  3.700000
0.024000  3.400000
0.022500  3.700000
0.015700  3.600000
0.009000  3.600000
0.000700  3.600000
-0.000800  3.500000
-0.001500  3.500000
-0.003000  3.500000
-0.005300  3.300000
-0.004600  3.600000
-0.001500  3.300000
0.003000  3.600000
0.003700  3.200000
-0.001500  3.200000
-0.006800  3.400000
-0.006800  3.200000
0.012700  3.300000
-0.001500  3.300000
-0.049500  3.000000
-0.071300  3.300000
-0.065300  3.200000
-0.036100  3.300000
-0.021000  3.100000
-0.015800  3.200000
-0.004600  3.300000
0.004500  3.000000
0.009000  3.300000
0.012000  3.100000
0.012700  3.100000
0.007500  3.300000
0.009000  3.100000
0.018700  3.100000
0.022500  3.200000
0.024700  3.100000
0.028500  3.500000
0.026200  3.300000
0.027700  3.300000
0.043500  3.300000
0.044200  3.300000
0.020200  3.200000
0.021700  3.100000
0.023200  3.500000
-0.035300  3.300000
-0.090000  3.300000
-0.099000  3.600000
-0.094500  3.200000
-0.078000  3.500000
-0.037500  3.500000
-0.018100  3.300000
-0.004600  3.900000
-0.002300  3.300000
-0.005300  3.600000
0.018700  3.600000
0.022500  3.600000
0.036700  3.600000
0.065200  3.400000
0.084000  3.800000
0.085500  3.600000
0.089200  3.600000
0.099000  3.900000
0.081700  3.300000
0.032200  3.700000
-0.087800  3.600000
-0.213000  3.500000
-0.204800  3.700000
-0.120800  3.800000
-0.075000  3.600000
-0.030000  3.800000
0.006700  3.600000
0.016500  3.600000
0.027700  3.600000
0.024700  3.800000
0.033700  3.700000
0.038200  3.500000
0.036700  3.600000
0.040500  3.600000
0.038200  3.600000
0.036700  3.900000
0.030700  3.400000
0.026200  3.900000
0.021700  3.700000
0.018000  3.600000
0.016500  3.900000
0.015700  3.700000
0.014200  3.700000
0.010500  3.600000
0.007500  3.900000
0.003000  3.900000
0.000000  3.600000
-0.003000  3.900000
-0.004600  3.700000
-0.006800  3.800000
-0.006800  4.000000
-0.007500  3.700000
-0.007500  3.800000
-0.003800  3.900000
-0.002300  3.700000
0.001500  3.800000
0.005200  3.900000
0.005200  3.800000
0.009000  3.900000
0.015700  3.900000
0.014200  3.900000
0.003000  3.600000
-0.006000  4.000000
-0.014300  3.900000
-0.018800  3.800000
-0.018100  4.100000
-0.014300  3.900000
-0.015000  3.600000
-0.019500  4.100000
-0.021000  3.600000
-0.018100  3.900000
-0.002300  3.900000
0.003000  3.600000
-0.005300  3.900000
-0.007500  3.900000
-0.003000  3.900000
0.009700  3.900000
0.008200  3.900000
0.001500  4.100000
0.003000  3.700000
0.000700  4.000000
0.005200  3.900000
0.002200  3.700000
-0.000800  4.100000
-0.000800  3.700000
-0.001500  4.000000
-0.000800  3.900000
-0.001500  3.700000
-0.000800  3.900000
-0.001500  4.200000
-0.001500  3.900000
0.000700  3.800000
0.001500  3.900000
0.002200  3.900000
0.003700  3.800000
0.004500  4.000000
0.006700  4.000000
0.008200  3.900000
0.003000  4.100000
-0.000800  3.900000
0.005200  3.900000
0.012700  4.100000
0.007500  3.800000
-0.004600  4.100000
-0.012000  3.900000
-0.031500  3.900000
-0.034600  4.100000
-0.012000  4.200000
-0.001500  4.000000
0.010500  3.900000
0.016500  4.200000
0.014200  4.100000
0.016500  4.000000
0.009000  4.400000
0.004500  3.900000
-0.009800  4.200000
-0.015800  4.400000
0.027000  4.000000
0.055500  4.500000
0.030700  4.100000
-0.013500  4.300000
-0.040500  4.300000
-0.056300  4.300000
-0.065300  4.300000
-0.038300  4.400000
-0.017300  4.600000
-0.013500  4.400000
-0.000800  4.400000
0.003000  4.700000
0.002200  4.500000
0.004500  4.800000
0.004500  4.600000
0.006700  4.500000
0.012000  4.900000
0.018700  4.900000
0.021700  4.700000
0.025500  4.900000
0.025500  4.900000
0.022500  5.000000
0.019500  5.000000
0.010500  5.000000
0.008200  4.900000
0.005200  5.100000
0.003700  5.200000
0.002200  5.000000
-0.000800  5.200000
0.001500  5.200000
0.000700  5.000000
-0.003000  5.600000
-0.004600  5.100000
-0.008300  5.300000
-0.006800  5.400000
-0.009800  5.300000
-0.012800  5.300000
-0.010500  5.300000
-0.003000  5.500000
0.005200  5.600000
0.009000  5.300000
0.008200  5.800000
0.006700  5.400000
0.009000  5.600000
0.008200  5.600000
0.005200  5.300000
0.003700  5.700000
0.000700  5.300000
-0.003000  5.600000
-0.003000  5.600000
-0.005300  5.300000
-0.010500  5.400000
-0.014300  5.500000
-0.013500  5.600000
-0.005300  5.500000
0.005200  5.600000
0.009700  5.800000
0.007500  5.300000
0.006000  5.800000
0.001500  5.600000
-0.001500  5.500000
0.003700  5.800000
0.004500  5.600000
0.005200  5.700000
0.006700  6.100000
0.004500  5.500000
-0.006000  6.000000
-0.017300  5.900000
-0.025600  6.000000
-0.038300  5.800000
-0.034600  6.000000
-0.021800  6.300000
-0.008300  6.100000
0.003000  6.200000
0.003000  6.400000
0.004500  6.100000
0.013500  6.600000
0.027700  6.400000
0.033700  6.500000
0.035200  6.700000
0.026200  6.300000
0.015000  6.900000
0.015700  6.700000
0.006700  6.700000
-0.018800  6.900000
-0.049500  6.800000
-0.061500  7.000000
-0.045800  6.900000
-0.029300  7.000000
-0.021000  7.100000
-0.004600  7.100000
0.000700  7.600000
0.008200  7.300000
0.015700  7.400000
0.012000  7.800000
0.011200  7.600000
0.001500  7.700000
-0.003000  8.000000
0.000000  7.700000
0.009000  8.100000
0.009000  8.100000
