a_avg,a_std,a_median,b_avg,b_std,b_median,label
0.00015750000000000006,0.00711401361388158,0.0,70.215,0.035796746153466716,70.2,0
0.0001805,0.003915395427895368,0.0,69.297,0.9853657841853527,69.6,0
0.000193,0.003368916590682362,0.0,64.76450000000001,2.5137990529061707,64.95,0
0.00020550000000000003,0.006468790148080214,-0.0008,57.836499999999994,2.5640180758854516,57.55,0
-0.0004300000000000001,0.015124318997086385,-0.0008,53.145,1.089361529848365,52.8,0
-0.0001395000000000001,0.016081763127107122,-0.0008,52.13550000000001,0.10267649347128,52.2,0
0.0006440000000000001,0.007266406769283108,-0.0008,51.86849999999998,0.1538704996198644,51.8,0
0.0003119999999999998,0.016321055119109338,-0.0015,51.961499999999994,0.1564934535532583,51.9,0
-0.00038600000000000017,0.017403800312765977,-0.003,50.227,1.8236776030866861,50.75,0
0.0009815,0.02169247160587883,-0.0015,43.114,3.4270581608999504,43.05,0
-0.0008294999999999999,0.025699308395559013,-0.0068,34.935,2.84503888042954,34.75,0
-5.5000000000000185e-05,0.024933964545168066,-0.0063999999999999994,28.8285,1.8989120794357857,28.8,0
-0.0005900000000000004,0.02312275304851724,-0.0046,24.13,1.7511231141196273,24.25,0
0.0004124999999999995,0.023775482362252697,0.0,19.755,1.632144133452009,19.8,0
0.00023099999999999981,0.02321881794003871,-5.000000000000002e-05,15.54,1.5869758858632848,15.45,0
-0.0005844999999999998,0.02093929272082133,-0.0015,11.8,1.2906311026842958,11.7,0
-0.00019449999999999996,0.019042634518285154,-0.003,8.7855,1.0561805417083843,8.649999999999999,0
2.4500000000000494e-05,0.023783302485897093,0.0014500000000000001,6.4415,0.7317822602262976,6.4,0
-0.0008995000000000003,0.03000412115328335,0.0015,4.977499999999999,0.4394420285798941,4.9,0
0.00018950000000000022,0.03231260220185426,0.0026,4.254000000000001,0.13776390845341827,4.2,0
-3.800000000000005e-05,0.029161757431307396,0.0,3.7864999999999998,0.3232494408425564,3.8499999999999996,0
0.0002555000000000003,0.030236984736906204,0.0,3.3740000000000006,0.07105804832076225,3.4,0
-0.0006865000000000002,0.02091688187774261,-0.00115,3.9045,0.470677636165061,3.9,0
-0.0007775,0.017458935128728374,-0.0008,5.5954999999999995,0.8780573292028455,5.45,0
0.00010849999999999985,0.01873280190162239,-0.0008,8.703,1.5358336253068288,8.5,0
0.0005605,0.012931007094281629,0.0007,13.170499999999999,1.8776869524649975,13.0,0
-6.650000000000003e-05,0.014753513430458312,0.0007,18.3165,2.1173316263826987,18.4,0
-0.00017550000000000004,0.011742173689944466,0.0007,24.1855,2.4244026876655203,24.15,0
0.000277,0.008352351758606519,0.0007,30.767000000000003,2.6228434070085935,30.75,0
0.00031800000000000003,0.008141757616474907,0.0007,37.806,2.736091185409282,37.9,0
5.649999999999999e-05,0.005980139470819411,0.0,44.868500000000004,2.810292953129987,44.8,0
0.000211,0.003916410391130991,0.0007,52.166000000000004,2.819056472826488,52.150000000000006,0
4.849999999999995e-05,0.001959283468144085,0.0,59.3595,2.685211641153997,59.4,0
9.15e-05,0.0020961744887859827,0.0,65.01,1.5081353923998486,65.45,0
7.400000000000001e-05,0.002005976998520414,0.0,66.9535,0.2184636855624922,67.0,0
0.00010949999999999999,0.0019864009397569608,0.0,66.8975,0.12777079824600665,66.9,0
0.000224,0.0021064924763131284,0.0007,66.82999999999998,0.05581736189974951,66.8,0
-5.500000000000014e-06,0.002014699685839207,0.0,66.7575,0.0495583509688679,66.8,0
4.250000000000001e-05,0.0017871522924985763,0.0,66.79249999999998,0.026405230180864527,66.8,0
0.0001575,0.0019602696332841263,0.0,66.7625,0.04853377832181094,66.8,0
0.00017,0.00188135522627631,0.0007,66.77749999999997,0.04186302142480752,66.8,0
3.400000000000001e-05,0.002961536339037085,0.0,66.7725,0.04476347667709557,66.8,0
-0.0002719999999999999,0.004968414405878672,0.0,66.78999999999999,0.09510639374223827,66.8,0
-0.00035000000000000005,0.006495897429692487,-0.0008,65.29450000000001,1.3245724634972886,65.65,0
-0.00010750000000000001,0.00932488935901059,0.0,59.825500000000005,2.8568000072471005,60.05,0
0.0003605,0.015046213224996526,-0.0008,51.349000000000004,3.6090615993829624,51.45,0
1.6999999999999915e-05,0.01138128195303466,0.0,41.489,3.9835312987398748,41.5,0
-8.549999999999988e-05,0.01769866246401336,-0.0008,31.770500000000002,3.393857849929434,31.6,0
-0.00029700000000000006,0.016694249935367642,-0.0023,23.781999999999996,2.762104652353484,23.65,0
0.0004624999999999999,0.022081116873061676,-0.0015,17.279,2.256728409795449,17.1,0
-7.299999999999973e-05,0.025998824306622665,-0.0008,12.105,1.7910932626127765,12.05,0
0.00023450000000000025,0.034710455751001186,-5.000000000000002e-05,7.8,1.5309536555615866,7.75,0
-0.0008894999999999993,0.03858821310586326,0.0007,4.1605,1.2487942928799967,4.0,0
-0.000788,0.04356107773537446,-0.00075,1.8695000000000002,0.5348364235913639,1.7,0
0.0010825,0.05709260698735929,0.00445,1.0759999999999998,0.21319300242129696,1.1,0
0.0008305000000000004,0.05146239120261957,-0.0015,0.5585,0.1642028100066206,0.55,0
0.0005850000000000006,0.05217433835627024,-0.0098,0.36,0.04911273054420352,0.4,0
0.00022650000000000003,0.04721820030401148,-0.003,0.613,0.21764153830548966,0.6,0
8.500000000000174e-06,0.032124620370046354,-0.0038,1.735,0.6814667893042353,1.6,0
0.00047950000000000005,0.029383000755829638,-0.0019,3.8435,0.940948815487237,3.7,0
0.0010395000000000005,0.026775149540470784,-0.0015,6.5760000000000005,1.2052331453595886,6.5,0
0.00014900000000000031,0.022175893448771265,0.0015,10.312999999999999,1.668969230230829,10.25,0
-0.0005849999999999998,0.01931179697782065,-0.0004,15.268000000000002,2.1765252839233886,15.1,0
5.4499999999999685e-05,0.014806167387732994,0.0015,21.58,2.700307073548727,21.45,0
0.0005754999999999998,0.013105756522234814,0.0011,28.7675,2.8473727200763808,28.6,0
-0.00014699999999999997,0.01105337852805295,0.0007,36.060500000000005,2.671643340849133,36.1,0
-0.000189,0.004704523536825245,0.0007,43.577999999999996,3.054268945913221,43.75,0
8.000000000000003e-06,0.0030422380019159436,0.0007,51.1325,2.988099301761226,50.9,0
-2.299999999999999e-05,0.0023745871897254134,0.0007,59.676,3.478566677620721,59.7,0
-2.25e-05,0.002805261343623826,0.0,67.37899999999999,2.2579082684519562,67.85,0
0.000106,0.002521458459665577,0.0,70.82700000000001,0.5726347463818611,71.1,0
3.500000000000003e-05,0.0019479598914488628,0.0,71.16250000000002,0.10677431230799013,71.2,0
4.8e-05,0.001861645676039233,0.0007,70.87749999999998,0.10864052567571354,70.8,0
0.00010899999999999998,0.002032578628097075,0.0,70.775,0.06240570776626902,70.8,0
9.100000000000002e-05,0.0018149072819874444,0.0,70.67000000000002,0.045940752756343205,70.7,0
0.00015950000000000006,0.0028804155461656833,0.0,70.58500000000001,0.035796746153466716,70.6,0
0.00010349999999999998,0.002205871049138443,0.0,70.49,0.05398678416354581,70.5,0
0.00013150000000000003,0.002237563676419099,0.0,70.40499999999999,0.021849186132973347,70.4,0
0.0002384999999999999,0.005564132059709716,0.0,70.142,0.3330021805653951,70.25,0
8.000000000000022e-06,0.00570633395764574,-0.0008,67.6975,1.6668942474436723,67.9,0
-0.00018150000000000007,0.006941095141171455,-0.00115,61.866499999999995,2.821174022339212,62.05,0
0.000212,0.008059275127323145,-0.0008,54.2855,2.9115503390606903,54.25,0
0.0005654999999999999,0.01209826017434867,-0.0008,46.29950000000001,3.3445748090402074,46.349999999999994,0
0.000611,0.013227695895108395,0.0007,37.2975,3.472916569324326,37.2,0
0.00034149999999999984,0.01484970357384806,-0.0015,29.153499999999998,2.848253939260431,29.05,0
0.00013499999999999995,0.013911940390439278,0.0,22.4615,2.2666841498488224,22.3,0
0.0012214999999999995,0.0215672790443506,0.0,17.185,1.8827636588204242,17.15,0
0.0004794999999999998,0.028743386038439758,-0.0004,12.411499999999998,1.7966237878798883,12.350000000000001,0
9.34999999999997e-05,0.050055811140111116,-0.00265,7.983,1.6448827301603903,8.05,0
0.0014649999999999997,0.057669337933501916,0.00035,3.815,1.5791273590437216,3.8,0
0.0001339999999999994,0.06681935479241305,0.003,0.308,1.049448766528332,0.1,0
-0.0020895,0.07292476497378932,-0.0022500000000000003,-1.382,0.2993728788701725,-1.5,0
0.0023144999999999997,0.0890354694142682,0.0045,-1.5975,0.015651673213169886,-1.6,0
-0.0009820000000000009,0.06634163427434504,-0.003,-1.5325,0.06868287037840727,-1.5,0
0.00010049999999999934,0.05143938082098414,0.0007,-1.2795,0.1777292560109647,-1.3,0
-0.0004819999999999996,0.050321781411453534,0.0022500000000000003,-0.4795,0.4579062575500771,-0.55,0
0.0014739999999999994,0.047357311990810606,-0.0004,0.7725,0.5429250297598175,0.7,0
0.00019500000000000019,0.03926203653101574,0.0015,2.745,0.9500991749344143,2.75,0
0.0005445,0.029995722806483868,0.003,5.181500000000001,0.9465662620451939,5.1,0
0.0011575000000000001,0.028709208225492267,-0.00115,7.9725,1.2307997767517913,8.0,0
6.100000000000008e-05,0.02029638626646101,-0.0008,11.503499999999999,1.4995603208203712,11.649999999999999,0
0.0007185,0.021549918857476452,-0.0008,15.64,1.7307447492148218,15.55,0
0.00040199999999999974,0.019695552032102236,0.0007,20.586499999999997,2.113932663670407,20.35,0
-2.1500000000000096e-05,0.010696046691377177,-0.0008,26.598,2.5678131399321167,26.35,0
0.00015799999999999994,0.00924756309065139,-0.0008,33.468,2.697360705183745,33.3,0
-5.9500000000000145e-05,0.010115504282260088,0.0007,40.8935,2.9547521981993374,40.95,0
0.0001435,0.005677873633234083,0.0015,48.580499999999994,2.890944056478514,48.75,0
0.00011049999999999999,0.003343085529009295,0.0007,55.591499999999996,2.6283490719881764,55.55,0
5.3999999999999984e-05,0.0027637611834955976,0.0,61.8885,2.1183376790807134,62.1,0
1.0999999999999976e-05,0.0025699811312683567,0.0007,65.9145,0.9991653552016204,66.1,0
0.000164,0.0023002958079386426,0.0007,66.7805,0.17613879292154877,66.7,0
0.00018099999999999998,0.0023776469513209116,0.0,66.565,0.04781665150137303,66.6,0
0.00019449999999999998,0.0024795889896894094,0.0007,66.4925,0.026405230180864606,66.5,0
6.5e-05,0.002560695375092496,0.0,66.41999999999999,0.04010037656936463,66.4,0
0.00014299999999999998,0.002099593404045543,0.0007,66.37999999999998,0.040100376569370266,66.4,0
-9.999999999999767e-07,0.0017679443248242816,0.0,66.31999999999998,0.040100376569370336,66.3,0
6.349999999999998e-05,0.00240823915530533,0.0,66.28249999999998,0.03809205986981357,66.3,0
0.0004755,0.00521308266810748,0.0,66.28999999999999,0.030075282427023373,66.3,0
0.00015199999999999998,0.006517313316415109,-0.0008,65.8585,0.47492686556794217,66.05,0
0.0004179999999999999,0.006335746556019309,-0.0004,62.9715,1.812030635813211,63.2,0
8.250000000000004e-05,0.0071894006117185355,-0.0008,57.166000000000004,2.687948910737269,57.349999999999994,0
-0.00026600000000000007,0.014851842651696574,-0.0015,49.298,3.276119778643648,49.3,0
0.0010455,0.020632831809823445,-0.00265,40.827,3.27735814062326,40.849999999999994,0
-0.0004800000000000002,0.021841049821069315,-0.00115,32.365,3.2186290349031546,32.3,0
0.0008424999999999996,0.018951642873058238,0.0,24.144000000000002,3.1074661267089008,24.05,0
0.0009149999999999997,0.021662564680635425,-0.0008,17.086499999999997,2.3284708787454953,17.0,0
4.600000000000007e-05,0.0324807818555796,-0.0008,11.861500000000001,1.7495061040305624,11.850000000000001,0
0.0009010000000000003,0.04117289320260803,0.0007,7.477,1.6948550582104964,7.5,0
0.0025830000000000002,0.0739817729215995,-0.0008,3.0855,1.5748780761614125,2.8499999999999996,0
0.0012099999999999988,0.08824760050548046,0.0071,-0.47100000000000003,1.1235975065760526,-0.7,0
-0.001648000000000001,0.08305979801463012,-0.00115,-1.9489999999999998,0.16288541460627282,-2.0,0
0.0009314999999999998,0.06801819116528302,0.0011,-1.7725,0.15366134531893885,-1.8,0
-0.0010555000000000015,0.05534082311699324,-0.0038,-1.47,0.08739674453189834,-1.5,0
0.0010295,0.04787767473930006,-0.0046,-1.2000000000000002,0.15691754388177703,-1.2,0
0.0024360000000000007,0.05578751867757704,-0.00605,-0.5415,0.38636009188710874,-0.5,0
-0.0013195000000000001,0.04360414633539098,-0.0034000000000000002,0.826,0.6459957838591669,0.8500000000000001,0
0.0011379999999999997,0.030470566669588372,0.0015,2.4154999999999998,0.5700301940340986,2.4,0
-0.0004220000000000002,0.031439529833967056,-0.0019,3.9245,0.6414883369416474,3.8499999999999996,0
0.000445,0.03427063842841942,-0.0008,5.7330000000000005,0.7732402618284715,5.6,0
0.002057,0.026767368399887134,0.00185,8.061,1.1202920473505038,7.85,0
0.0005594999999999999,0.02498839951460492,0.0,11.8055,1.6956698473334313,11.8,0
0.0004949999999999997,0.020531543938106838,0.0015,16.348499999999998,1.8099384342232179,16.25,0
0.0002915,0.012770359751821982,-0.0008,21.629499999999997,2.2688362301400202,21.5,0
-0.0007000000000000002,0.017439258547698275,0.0,27.651999999999997,2.328649618389621,27.7,0
0.00031000000000000005,0.012928496824873095,0.0,33.49,2.2777490431383316,33.4,0
9.350000000000001e-05,0.008287340211970598,0.0007,39.618,2.4817071446403167,39.55,0
0.0003534999999999999,0.005627488863118489,0.0007,46.312,2.665743223694542,46.3,0
0.00019349999999999996,0.00314872675072858,0.0007,53.348,2.733634905943911,53.349999999999994,0
0.00018399999999999997,0.0028971557703701308,0.00035,59.928999999999995,2.3049780081576614,60.05,0
0.00017699999999999997,0.0030774705726664786,0.0,64.53,1.2290045814831339,64.8,0
0.00010899999999999999,0.0028808707156694844,0.00035,66.62100000000001,0.43980237681629997,66.8,0
0.00011799999999999997,0.0029473053871674286,0.0007,66.7945,0.11996544728676672,66.8,0
0.00020700000000000004,0.0022189569282088924,0.0,66.70500000000001,0.08667504147141106,66.7,0
7.999999999999995e-05,0.002620023399335457,0.0007,66.60500000000002,0.0218491861329764,66.6,0
0.000125,0.002731332253570956,0.0007,66.60000000000002,2.279442501808651e-13,66.6,0
0.00015599999999999997,0.0023486046322429336,0.0,66.56500000000001,0.04781665150137304,66.6,0
0.00027649999999999994,0.004151768739747158,0.0,66.58000000000001,0.040100376569364576,66.6,0
0.00023199999999999997,0.00524004449710671,0.0,65.8945,0.6363524749396423,66.1,0
4.049999999999998e-05,0.005663194204065829,-0.0008,62.824,1.8235819850726225,63.05,0
-0.00034600000000000006,0.010013171426179137,-0.0015,57.0275,2.586278782285176,57.1,0
0.00013049999999999992,0.009221262285647416,-0.00115,49.5065,3.166407813629043,49.5,0
0.0002829999999999999,0.009944843415195826,-0.0015,41.430499999999995,3.007514834109209,41.349999999999994,0
8.499999999999793e-06,0.014890979960058176,-0.0023,33.72,3.0106177265600143,33.7,0
0.0005070000000000001,0.01618890838734562,0.0015,26.1235,2.8316761288135432,26.1,0
0.00032149999999999985,0.018786948526161005,-0.0008,19.676499999999997,2.079258118081553,19.55,0
0.00013099999999999988,0.023631584754094458,-0.0015,14.694,1.8380850861479718,14.649999999999999,0
-3.100000000000033e-05,0.026102161850435526,0.0007,10.359000000000002,1.5201557047994037,10.3,0
0.0020369999999999997,0.05213123304019823,0.0022500000000000003,6.785999999999999,1.2527373043734444,6.8,0
-0.00149,0.07098565217049396,-0.0019,3.5195,1.264779858494064,3.5,0
0.0010130000000000002,0.0573122570226049,0.00935,0.4000000000000001,1.070715723618562,0.3,0
0.0029684999999999994,0.087472260974264,0.003,-1.605,0.524452334589409,-1.65,0
0.0009765000000000008,0.09172314031966253,-0.00115,-2.3040000000000003,0.08730469948842276,-2.3,0
0.0007575000000000009,0.103691353679511,0.00185,-2.0305,0.15793819158711767,-2.0,0
-0.003843000000000001,0.072990699145912,-0.0087,-1.595,0.28065787753260285,-1.7,0
0.0008279999999999999,0.06753831978363085,-0.0079,-0.6205,0.43851021200212753,-0.6,0
-3.400000000000014e-05,0.05071973483278021,-0.0046,0.8959999999999999,0.7687907361433924,0.9,0
0.0018354999999999995,0.05789849973104249,-0.00115,3.1195,0.9074065700759967,3.1,0
-8.949999999999972e-05,0.04414941669743348,-0.0019,5.756,1.1815856818775736,5.6,0
0.0004744999999999994,0.05577853011562152,-0.0015,9.0715,1.373707798470217,9.0,0
0.0010030000000000006,0.04213439720870235,0.0037,13.05,1.644573840111136,13.05,0
-5.7500000000000124e-05,0.04148510471623017,-0.0034000000000000002,17.4105,1.7651112823830624,17.25,0
0.00025100000000000003,0.02289073673215224,0.00035,22.416000000000004,2.133448384669816,22.3,0
0.0009660000000000001,0.01455664879430025,0.0015,28.178,2.3030929607659454,28.15,0
0.000276,0.009921770590892106,-0.0008,33.9105,2.067659505127895,33.9,0
-1.5999999999999955e-05,0.008995813878503905,0.0007,39.162000000000006,1.993016954999273,39.150000000000006,0
0.00022200000000000006,0.006427548748517812,-0.0008,44.22,1.9139267430832996,44.2,0
0.0003895,0.005277994494066567,0.0,48.977000000000004,1.7784220322024566,48.95,0
0.00018149999999999997,0.004312714374542083,0.0007,53.5735,1.7206834419897477,53.6,0
0.00015599999999999997,0.002876060258941963,0.0007,57.8225,1.5109794986121183,57.95,0
-0.0002445000000000001,0.0037529847083495457,0.00035,61.292,1.2092341527516104,61.349999999999994,0
-0.00043600000000000014,0.003653593811399055,0.0,64.34450000000001,1.1467541039274163,64.4,0
-4.750000000000004e-05,0.0032433455259970423,0.0,66.3145,0.34105916903657507,66.5,0
0.00044399999999999995,0.0025047420352835898,0.0007,66.3775,0.11092915028030093,66.3,0
-9.149999999999999e-05,0.002390491581244326,0.0,66.105,0.1380954443810286,66.1,0
-0.0012125,0.004965599626252728,-0.0015,4.986000000000001,5.544865341763625,3.6500000000000004,1
0.0008309999999999999,0.006939113450390252,-0.0004,31.255,14.075117036742176,31.85,1
9.599999999999998e-05,0.005594216683460481,0.0,52.054,4.235300799745112,53.349999999999994,1
0.0037149999999999996,0.015644758462075515,0.0015,26.379499999999997,16.478727866875914,26.15,1
-0.0007240000000000003,0.0306739822968872,-0.00265,1.605,3.792332253323539,2.3499999999999996,1
0.001419,0.03068612439117644,-0.0015,6.969000000000001,1.7812081609297719,7.7,1
-0.0001570000000000004,0.019700770359653934,0.0015,6.0805,1.517691234545778,5.95,1
0.00036700000000000036,0.015698359898969942,0.0007,0.7534999999999998,2.4666188992160603,0.55,1
-0.0009769999999999996,0.010262532282249884,-0.0008,1.162,3.668397703159067,-0.2,1
0.0005319999999999999,0.010389518103943068,0.0015,22.589499999999997,13.768292163354083,20.25,1
-0.0013505000000000001,0.007639516398570011,-0.0008,51.2065,6.321758529438036,53.8,1
0.00021299999999999992,0.0143104323263427,0.0007,33.103,17.280333929166922,35.05,1
-9.99999999999987e-06,0.03364708802650412,-0.00115,2.609,5.162915599488065,2.1500000000000004,1
0.0007405000000000002,0.030458381024327536,-0.0046,6.6545000000000005,2.098618772852479,7.7,1
-0.0028144999999999997,0.019433035121156458,-0.0046,6.2475,1.6369765456643763,6.05,1
0.0005445,0.014872985518758689,0.0011,1.2315,2.2492338729165935,1.05,1
-0.0011695,0.009171554218556399,0.00035,1.5430000000000001,3.7679888134776176,-0.1,1
0.0013724999999999998,0.009627545998840985,0.0007,25.689,15.15389659162117,24.5,1
-0.0013585,0.006199037674546936,-0.0008,52.87299999999999,5.248390133648111,54.5,1
-0.00044050000000000014,0.009250218508895429,0.0,30.268,17.552244369654275,31.3,1
4.449999999999996e-05,0.026482431262591612,-0.0008,0.8895000000000001,4.93081172540149,1.2000000000000002,1
0.0011964999999999999,0.03452988564654998,-0.0015,6.543499999999999,2.336741223956707,7.75,1
-0.0024835,0.012784392091757,-0.0015,6.716499999999999,1.2368210791822511,6.55,1
0.0011355,0.01203300276438255,0.0007,2.1945,2.158870854598342,1.8,1
-0.0008865000000000002,0.008254943257888255,-0.0015,1.4525,2.7353067956504717,0.05,1
0.00017249999999999959,0.00925431822334279,0.0007,19.355,12.574500599492335,15.8,1
-0.00015300000000000006,0.008669022479712974,-0.0004,50.460499999999996,8.492881426502024,54.7,1
-0.000424,0.006723836246470222,-0.0008,39.3055,16.05839906881338,43.15,1
-0.0008659999999999996,0.026163912082817174,-0.0019,3.9475,8.220142789966438,1.7,1
-0.00032050000000000026,0.04104796470939723,-0.0015,7.292999999999999,3.4363781038124706,8.7,1
0.0002954999999999994,0.03016759101233369,-0.003,7.5275,2.233435677297001,8.1,1
0.0006265,0.011548832208361344,0.0007,0.5174999999999997,2.8495867195721236,0.35,1
-0.0017254999999999998,0.006032724806666125,-0.0019,-3.0444999999999998,1.5215602115548812,-3.5,1
-0.0008779999999999999,0.007998198038264398,-0.0015,6.97,6.783181981116586,5.95,1
0.0008109999999999999,0.011392436837017227,0.0011,34.661500000000004,13.360579823349,36.05,1
0.0004369999999999999,0.008896864729220645,0.0,49.1625,5.704255992867151,51.25,1
-0.00056,0.020277940585075673,0.0,19.851000000000003,15.509747267493033,19.049999999999997,1
0.0007060000000000002,0.028299929221993633,0.0022,0.731,3.507857511588525,1.2999999999999998,1
-0.00015450000000000001,0.00646029074675926,0.0,17.0,0.0,17.0,2
0.0005314999999999999,0.007843581234545519,0.0007,17.0,0.0,17.0,2
-1.0499999999999954e-05,0.007483982208590054,0.0,17.0525,0.050062774663768406,17.1,2
0.000356,0.006824274143668302,0.0007,17.03,0.05581736189974696,17.0,2
0.0004755,0.009178807235218885,-0.0008,16.8025,0.1528415936969348,16.8,2
-3.900000000000011e-05,0.009083331633703527,-0.0015,16.177500000000002,0.30365238986272874,16.15,2
0.00042099999999999993,0.009635109531208864,0.0007,15.495999999999999,0.3378679829006394,15.6,2
0.00015700000000000005,0.0074994305311441665,-0.0004,14.669499999999998,0.22865072879589574,14.6,2
6.649999999999995e-05,0.007336446345123392,-0.0004,14.6775,0.06530754456327721,14.7,2
0.00013300000000000003,0.004447223853147041,0.0007,14.367000000000003,0.2789265136196272,14.4,2
0.00018249999999999996,0.003977113388441749,0.00035,15.2275,0.779185085191526,15.2,2
0.000223,0.004374959698306837,0.0,18.026999999999997,1.3895413364229723,18.0,2
7.249999999999989e-05,0.0038555310071031286,-0.0004,23.9575,3.281215571726537,23.8,2
0.00013299999999999998,0.004089158481329275,-0.0004,33.325,3.82249030879138,33.349999999999994,2
0.00018550000000000004,0.006415468097069973,0.0,43.396499999999996,3.9506933110773024,43.45,2
0.00028649999999999997,0.008585049980392027,-0.0008,53.10799999999999,3.4289099019335425,53.349999999999994,2
-9.250000000000005e-05,0.008488821721599852,-0.0008,60.686499999999995,2.4949129651187403,60.8,2
0.000189,0.008588690647309168,-0.0008,67.294,2.805014175118028,67.05,2
0.0002295,0.009223564956268948,-0.0008,75.163,3.098310611158294,75.25,2
-9.550000000000003e-05,0.008878075855979302,-0.0008,82.3975,2.430758458468689,82.6,2
-1.9500000000000074e-05,0.012418707308171418,-0.0008,87.3875,1.5588275938463119,87.4,2
0.00042149999999999995,0.013593779531822595,-0.0008,91.957,1.9932678151504308,91.9,2
0.00026449999999999987,0.016858008542234473,-0.0023,96.58349999999999,1.5185214145451358,96.65,2
0.0001555000000000001,0.014942639732015353,-0.0015,99.6675,0.7567410621711208,100.05,2
0.0003354999999999999,0.015104979037011036,0.003,100.42399999999998,0.16110173445441614,100.4,2
-0.00017500000000000003,0.019847202124249255,0.0007,101.05099999999999,0.24962081796961383,101.2,2
-0.0010655,0.0202816316568297,-0.0008,101.99449999999999,0.7384757832265466,101.7,2
0.0005505,0.022773216653201814,0.003,103.79,0.5120654794812697,103.9,2
-0.00023400000000000024,0.020783747612596725,0.0007,104.64899999999997,0.17363683003245012,104.7,2
0.00028299999999999983,0.011947279962086022,0.0007,104.2925,0.6920900905715496,104.7,2
-0.0001575,0.011185653219177609,-0.0008,100.1325,2.489696102623187,100.25,2
0.0001955000000000001,0.011239298863573456,0.0,93.07599999999998,2.9487283691406496,93.2,2
8.750000000000003e-05,0.009027333910833716,0.0,84.3565,3.7573188545656295,84.45,2
0.00017199999999999995,0.007289568233107201,0.0007,74.514,3.7597850895493994,74.45,2
8.05e-05,0.007359543747465206,0.0,65.1075,3.4073219637750882,64.95,2
0.00031099999999999997,0.006396699761532972,0.0,56.2935,3.4438945685074294,56.25,2
5.300000000000006e-05,0.0061893238441885715,-0.0008,48.2475,2.921776452467052,48.45,2
0.00034050000000000004,0.005317290441398792,0.0,40.653,2.803585464594655,40.55,2
0.00025,0.004492707659146406,-0.0004,33.9795,2.3589942814895726,33.95,2
0.0001715,0.004194389378837703,0.0,27.464499999999997,2.626725754804786,27.4,2
0.00012299999999999998,0.003720265160485419,-0.0004,22.044,1.5349411132370934,21.95,2
0.00016999999999999999,0.005039492277210105,-0.0008,18.244,1.6372129768781742,18.45,2
0.00018999999999999996,0.006661265819013513,0.0,13.347000000000001,1.9571261363458003,13.149999999999999,2
0.00023050000000000002,0.006991496611911634,0.0,9.8855,0.7205802728691926,9.75,2
0.00017999999999999998,0.00738932409309294,-0.0004,8.283999999999999,0.5712051968289694,8.2,2
0.00024349999999999987,0.008415531092440875,0.0007,7.1495,0.3868436246724879,7.15,2
0.00029399999999999994,0.008670307674810591,0.0,6.5840000000000005,0.08935278170258569,6.6,2
0.00024800000000000007,0.006985159861553445,0.00035,6.980999999999999,0.32070744664204215,6.9,2
0.00023950000000000002,0.005856430537726545,0.0,8.2175,0.8527482912566907,7.8,2
0.00015099999999999998,0.00452396177600494,0.0,12.781999999999998,2.6052664096645914,12.649999999999999,2
0.00018199999999999998,0.004005759170577195,-0.0004,20.537999999999997,3.372197291509545,20.4,2
0.0005475,0.004861901291763777,0.0007,30.688999999999997,4.448722813726073,30.55,2
0.0002145,0.0053131334147955575,0.0,43.716499999999996,5.57437404377384,43.650000000000006,2
0.0003005,0.007380399803281758,0.0007,57.55299999999999,5.033225386265226,57.650000000000006,2
-0.00020350000000000007,0.007255317769033158,-0.0008,69.68,4.263506472046916,69.85,2
-0.00029400000000000004,0.009175949774892882,0.0,79.0315,2.994342697647476,79.2,2
0.00024299999999999994,0.012060519543464591,0.0007,85.8665,2.3021352880363266,86.0,2
0.00025849999999999994,0.008759071550233538,-0.0008,91.22849999999998,1.8859804775789824,91.3,2
2.949999999999998e-05,0.01590339490794308,0.0011,95.45349999999999,1.3547933699929633,95.5,2
3.500000000000003e-05,0.016251657047326576,-0.0008,98.95649999999999,1.4797316577320618,98.85,2
5.699999999999976e-05,0.01900961806282474,0.0015,102.48850000000002,1.0815574801713381,102.7,2
-0.00010849999999999998,0.02010293805247652,0.0026,104.02900000000001,0.23651362216019722,104.1,2
0.0007510000000000001,0.012519391953061131,0.0007,103.741,0.24905651111473404,103.8,2
-0.00025650000000000005,0.013626867406951357,0.0011,101.33,1.7172491734218691,101.5,2
0.0005985,0.013617046948143335,-0.0008,97.3415,1.2236479565659557,97.2,2
-4.199999999999988e-05,0.009478583953779394,0.0,94.22150000000002,1.35353167305008,94.4,2
0.0003675,0.00792825833022321,0.0007,89.3855,2.380097491774603,89.45,2
0.0003724999999999999,0.007779097992562467,0.0015,82.2395,3.0673167279476936,82.25,2
0.00010349999999999998,0.007221912339484329,0.0007,74.016,3.308515585105261,74.15,2
-1.799999999999996e-05,0.006252129365907281,-0.0015,66.021,2.8513523195584343,66.05,2
0.000363,0.005812612434747642,0.0015,58.2845,3.171387431583539,58.25,2
2.550000000000007e-05,0.004711132944217392,0.0007,50.096000000000004,3.0802310165924065,50.05,2
0.00023,0.003996015603512778,0.0007,42.26,2.9055829123089056,42.150000000000006,2
0.00018549999999999998,0.00397986638370697,0.0007,35.5665,2.28352802725438,35.55,2
0.0002765,0.0032994285709001692,0.0007,30.363000000000003,1.733509815780411,30.25,2
0.00016400000000000006,0.00321616582487056,0.0,26.323999999999998,1.5609313029929655,26.5,2
0.00024300000000000002,0.0035639387335478145,0.00035,20.7675,2.63228768226633,20.75,2
0.00010599999999999999,0.003686927061358673,0.0,15.05,1.540867079531496,14.6,2
0.0002715,0.005109557282988488,0.0007,12.7295,0.4933525450105044,12.6,2
0.00021949999999999994,0.007031692059247221,0.0,11.349,0.6326136261573877,11.3,2
5.900000000000011e-05,0.007723762134318848,-0.0008,10.098999999999998,0.3343019427773696,10.0,2
0.00026700000000000004,0.0066202074539751625,-0.0008,9.572999999999999,0.09495304314243995,9.5,2
0.00030549999999999994,0.005428180678402936,0.0,9.862,0.25451895704934724,9.9,2
0.000131,0.004610643029527294,0.0,10.487999999999998,0.3441631026214608,10.3,2
8.45e-05,0.004581852969396317,-0.0008,11.857000000000001,0.6062082498705005,12.0,2
0.0001025,0.0044731745104573135,0.0,13.509,0.9144397191723468,13.3,2
0.00015099999999999998,0.00421992152633698,-0.0008,17.8965,2.5353853046856765,17.55,2
0.00014499999999999992,0.0038078436636545575,0.0,25.633499999999998,3.3643307442616157,25.55,2
0.00012700000000000002,0.004589267685529712,-0.0008,34.386,3.2613934808891014,34.55,2
0.0001935,0.004468989492651233,0.0007,41.7775,2.3919134599729976,41.95,2
8.249999999999997e-05,0.005153604753936702,0.0007,47.8875,2.45164158930543,47.75,2
0.000237,0.005858192819938405,0.0007,54.806999999999995,2.9031694688433407,54.650000000000006,2
0.00013150000000000003,0.006966203969070488,0.0007,62.756,3.153663260368645,62.75,2
0.0005884999999999999,0.006348838990922931,0.0007,70.348,2.727396092839502,70.35,2
0.0001445,0.007022882180458607,0.0007,76.813,2.155215947160393,77.0,2
0.00010249999999999998,0.008671088897209883,0.0,81.46800000000002,1.5204389739041937,81.5,2
-0.00020949999999999997,0.011889109063407911,-0.0008,85.18849999999999,1.3861184552047845,85.2,2
0.0003159999999999999,0.014562643887183552,-0.0015,89.3365,1.875099394350462,89.3,2
-0.0002120000000000001,0.01257054689527194,-0.00115,93.85150000000002,1.4855409484587552,94.0,2
0.000614,0.014922850307717108,-0.0008,97.19200000000001,1.2015634705954357,97.2,2
-0.00040050000000000014,0.018774395847729324,-0.0004,100.09100000000001,1.0841568059554367,100.1,2
0.00025399999999999994,0.018600693886662585,0.0015,102.92700000000002,0.9413296487085124,103.15,2
-0.000179,0.014694198048257237,0.0007,103.47999999999998,0.38567307216471053,103.55,2
-0.0003375000000000002,0.010929106578445242,-0.0008,101.26950000000001,1.6371687013817222,101.8,2
0.00029199999999999994,0.012699967791673638,0.0007,95.36200000000001,2.5541287887157798,95.05,2
8.599999999999996e-05,0.010106697316792776,0.0011,88.90450000000001,2.6296587756554866,89.0,2
0.0004775,0.006293567247075963,0.0007,81.2625,3.2901167290010025,81.45,2
0.000229,0.007217138939521798,0.0011,72.116,3.655331894135116,72.1,2
0.0003290000000000001,0.006827645473629095,0.0007,62.375,3.96694571319766,62.45,2
0.00029849999999999994,0.006335490505852623,0.0007,52.60849999999999,3.501425086759812,52.55,2
0.0003044999999999999,0.004931534233836105,0.0007,44.188,2.9145719494020383,43.849999999999994,2
0.00012049999999999995,0.00436074653029817,0.0007,37.6165,2.38794664847854,37.7,2
0.00018900000000000004,0.0038958912772587887,0.00035,31.4725,2.3414752361293587,31.55,2
0.00018,0.003995537712003257,0.0,24.6375,2.80465222810298,24.5,2
0.00020600000000000007,0.0039012900842680274,0.0007,18.893,1.7217062356305284,18.95,2
0.00029049999999999996,0.005779391540890319,0.0,15.2585,0.9820129823415971,15.1,2
2.1500000000000025e-05,0.005738855290931393,-0.0008,13.5505,0.39999968592952495,13.45,2
0.0003865,0.0063228998936664055,0.0,12.869000000000002,0.21949920158735758,12.95,2
0.00013250000000000005,0.00727366653582441,0.0,12.262999999999998,0.19729578845151147,12.2,2
6.749999999999996e-05,0.006871497737449896,-0.0008,12.646499999999998,0.4067122128982641,12.649999999999999,2
0.0003484999999999999,0.004212197859077859,0.0,13.9225,0.86276623594659,13.5,2
0.00025699999999999996,0.0036956243310136217,0.0,18.449,2.5261246065145304,18.4,2
0.00015249999999999997,0.0036970032343200477,0.0,24.8775,2.36964551130464,24.9,2
0.0003775,0.004702874535268017,0.0007,31.998,3.18435181511278,31.95,2
0.00014050000000000003,0.006109816613060179,0.0007,41.119499999999995,3.8481046368936505,41.05,2
0.00039249999999999995,0.005660157299339508,0.0007,51.3015,3.973966507029843,51.3,2
0.000519,0.006705547017508721,0.0007,61.593999999999994,3.8412027011021923,61.75,2
0.0001939999999999999,0.007774514737074263,0.0007,70.3605,3.0151526457854407,70.45,2
-0.00032649999999999997,0.00864140713869468,0.0,77.6155,2.5512061882716135,77.75,2
0.00028399999999999996,0.009362017993174477,0.0007,83.5415,1.9993284676630885,83.8,2
0.00037099999999999996,0.011421735384606838,0.0,87.635,1.4105043825048278,87.5,2
0.0003150000000000001,0.011317686385725138,0.0022,92.01249999999999,1.8856223397171032,92.0,2
0.0001539999999999999,0.015089884261821753,0.0007,96.02850000000002,1.187894446523092,96.1,2
-0.0008565000000000001,0.020303839222815215,-0.0004,99.14050000000002,1.2634044101227402,99.1,2
-7.600000000000003e-05,0.019370537229586947,-0.0008,102.2705,1.0860373546422764,102.4,2
0.00033649999999999983,0.017184763549179437,-0.0008,104.01899999999999,0.2733359888746271,104.2,2
0.0005595,0.015498504053277108,0.0015,104.13600000000002,0.11649832314880164,104.2,2
0.00027299999999999975,0.011248377705474915,-0.0008,102.24599999999998,1.4948770138149041,102.45,2
0.0005265,0.01215252926710895,0.0011,98.32799999999999,1.3529108762945108,98.15,2
-5.799999999999996e-05,0.012262130123917274,0.0,95.11399999999999,1.2416976545546954,95.2,2
0.0005614999999999999,0.010492790908775232,0.0007,91.72599999999998,1.3374106836284123,91.75,2
0.0002909999999999999,0.007985515719509458,0.0007,88.14450000000001,1.460732159641547,88.2,2
0.000179,0.009760234108321697,0.0015,84.18400000000001,1.5489156524783587,84.15,2
0.000655,0.006976325723689731,0.0015,80.376,1.5018327162296368,80.5,2
2.9499999999999934e-05,0.006585455250343084,0.0,75.8175,1.9488802995850085,75.85,2
6.749999999999993e-05,0.005995190178499918,0.0,70.36,2.2418809403609665,70.35,2
0.0003365,0.005235817670948548,0.0007,64.1895,2.5546764194394953,64.25,2
-3.4999999999999267e-06,0.00463387545784238,0.0007,57.59400000000001,2.411251681879524,57.45,2
4.6999999999999984e-05,0.004048883585811932,0.0,51.805,2.1907468724835564,51.849999999999994,2
0.00017850000000000006,0.005201844256448061,-0.0004,45.965,2.332935476968553,46.05,2
0.00024599999999999996,0.005662109271908763,0.0,40.2935,1.8761148109642956,40.05,2
0.0002665,0.004364950367248488,0.0007,36.038999999999994,1.5997421274605033,36.1,2
9.85e-05,0.004085314765555812,0.0,31.958000000000002,1.4614428060573847,31.85,2
0.0002725,0.004502885032741838,0.0,28.927,0.8924986099956798,28.8,2
6.799999999999997e-05,0.003940942927242021,0.0,26.429499999999997,1.0996937673323182,26.5,2
0.00022850000000000002,0.0026060883007211723,0.0007,24.079,0.7082138336483226,24.1,2
0.0002155,0.0032253876320350113,0.0007,21.987,0.85843787072184,21.95,2
0.00021999999999999995,0.0036698280873843103,0.0,20.28,0.4597355586852052,20.2,2
0.00034999999999999994,0.0036077387508621473,0.0,19.0025,0.5651910781088723,18.95,2
0.00021749999999999997,0.0030683411375991777,0.0,17.9825,0.18497249557867518,17.9,2
0.00023249999999999999,0.003314744546271276,0.0007,18.275,0.26895479809270106,18.4,2
0.00013249999999999991,0.003215992348237105,0.0,18.733,0.163230576503079,18.7,2
0.00017899999999999996,0.0029964902417401996,0.0007,19.5535,0.5015430962409259,19.4,2
0.00022449999999999998,0.0025583148014104084,0.0,21.4,0.9214910355739863,21.35,2
0.00016050000000000003,0.0029168527387404197,0.0007,23.7795,0.9229784374403875,23.8,2
2.9999999999999992e-06,0.002728795084476905,0.00035,27.303999999999995,1.8903840241585748,27.15,2
0.0002135,0.0032495175907916417,0.00035,32.963,2.3918477540161214,32.95,2
0.00019999999999999998,0.0032658581025097584,0.0007,40.13300000000001,3.1796638677001363,40.05,2
0.00016700000000000002,0.005033087606457031,0.0,48.384499999999996,3.102990897918139,48.45,2
0.00032350000000000006,0.0055740332780603846,0.0007,56.12350000000001,2.95791209636954,56.05,2
0.0003095,0.006672802350289582,0.0007,64.1735,3.205984941829294,64.2,2
-0.000238,0.006480039394383633,0.0,72.3235,2.9784481727214827,72.55,2
0.0007084999999999998,0.007383008997644282,0.0011,78.631,1.8985683577488637,78.8,2
-6.499999999999997e-05,0.009424450985702538,-0.0008,83.21549999999999,1.7585711851003731,83.2,2
-2.9000000000000068e-05,0.011051058249878646,0.0015,87.917,1.8780967057584914,88.0,2
6.349999999999998e-05,0.008774215179151366,0.0015,92.86349999999999,1.890791690292827,92.95,2
0.0002749999999999999,0.010273553646261502,0.0007,96.637,1.043443757167515,96.7,2
4.500000000000004e-05,0.012859182238353885,0.0,99.45299999999999,1.165108746838594,99.4,2
0.00011399999999999997,0.016102760586075366,-0.0008,102.3425,1.0271900246466907,102.4,2
0.000606,0.018206933463124787,0.0011,104.74599999999998,0.7583266423398372,104.9,2
0.0001624999999999998,0.016756567564172063,0.0015,105.118,0.4162237511907214,105.2,2
0.0006454999999999999,0.013613202273185153,0.0007,102.68450000000001,1.6121117428257825,103.0,2
0.0002489999999999999,0.013295482249290773,0.0007,98.10799999999999,1.7088113356671415,97.95,2
0.000577,0.010265621555933581,0.0007,94.134,1.477994022876375,94.15,2
9.800000000000005e-05,0.0097858063556434,0.0007,90.16950000000001,1.557707292802551,90.05,2
0.000357,0.006645582732104547,0.0007,86.2525,1.5339028783469328,86.35,2
0.000298,0.005378871376639543,0.0007,81.69050000000001,1.9483428727379433,81.75,2
0.00015049999999999994,0.006341757579408081,0.0007,76.66550000000001,1.9069193630792127,76.6,2
0.0005,0.005495964714288432,0.0007,71.57799999999999,2.101044487796128,71.65,2
7.300000000000003e-05,0.005728468184313627,0.0,65.90950000000001,2.234417790906976,66.05,2
0.0003445,0.005856137076374359,0.0011,59.527,2.6184446263586594,59.55,2
0.0003705,0.005943120658865103,0.0007,53.031000000000006,2.4157229948691756,53.1,2
4.650000000000001e-05,0.004586399793446558,-0.0008,47.199,2.0377835530412027,47.150000000000006,2
0.0004090000000000001,0.004196770593812033,-0.0008,41.982000000000006,1.9984858590050658,41.95,2
0.00035649999999999994,0.003266143939136146,0.0007,37.287,1.5504030923420271,37.05,2
-4.3500000000000034e-05,0.003535869001814115,0.0,33.499,1.4680171565275726,33.45,2
0.000151,0.0033771771686040867,0.0007,30.318999999999996,0.9890043722053042,30.25,2
0.000207,0.003011193689749288,0.0,27.8025,0.9445659182234702,27.8,2
0.00011150000000000001,0.002848594425502693,0.0,25.4575,0.8404017644127966,25.3,2
0.00015900000000000002,0.0027390015787219267,0.0,23.501000000000005,0.780541623573434,23.5,2
0.00022399999999999997,0.002791538543023529,0.0,21.599500000000003,0.5854601334328378,21.45,2
0.00013300000000000003,0.002903439478277462,0.0,20.700499999999998,0.21207221203066176,20.7,2
0.00013050000000000003,0.0031230895265673634,-0.0008,20.101000000000003,0.26333577167414235,20.1,2
0.000179,0.00281229515166892,0.0,20.085500000000003,0.3506487168279176,19.9,2
0.00010650000000000003,0.0030644513473542874,0.0,21.616,0.8218400729628841,21.5,2
0.00014049999999999997,0.0032272722508187176,0.0,23.809,0.8017060953470306,23.8,2
0.000253,0.003145498658248837,0.0,25.964000000000002,0.9659551473715892,25.8,2
0.0003065,0.0032313489178895137,0.0007,29.586000000000002,1.773904644687029,29.5,2
0.000229,0.0035216143796838375,0.0,34.49,2.0503462141769973,34.25,2
-8.499999999999983e-06,0.004514730524465742,-0.0008,40.968500000000006,2.9616404781147962,40.8,2
0.00035299999999999996,0.0041535709646994086,0.0,49.506499999999996,3.5395976476907225,49.5,2
1.749999999999998e-05,0.004571865430826672,0.00035,58.106,3.072468766579742,58.150000000000006,2
7.049999999999992e-05,0.00526094740402712,0.0007,66.146,3.216553291238447,66.1,2
4.349999999999989e-05,0.005752522518568106,0.0007,74.3265,2.903532374756011,74.65,2
0.0004235,0.007616307402029612,0.0007,80.555,2.028410026641779,80.65,2
0.00043899999999999994,0.010088870379167243,0.0015,85.37899999999999,1.756869932521755,85.3,2
0.0002714999999999999,0.011263702442517197,-0.0015,89.604,1.4701328008929355,89.6,2
2.6999999999999908e-05,0.011373113450051332,-0.0004,93.82549999999999,1.84818252432385,93.8,2
-5.6000000000000094e-05,0.012795318082178358,0.0,98.3065,1.4237778855343568,98.6,2
0.000595,0.013403561178332664,0.0007,100.82950000000001,0.6982244171349336,100.8,2
-0.00015950000000000014,0.014135671039205855,-0.0008,101.81599999999999,0.09320642245001225,101.8,2
0.00043649999999999993,0.014004203164814728,0.0011,101.86849999999998,0.09749500695886784,101.9,2
-9.050000000000006e-05,0.011768147954602166,0.0007,101.3575,0.3999293279276773,101.45,2
-4.200000000000009e-05,0.012378431395742176,-0.0008,100.66200000000002,0.11800689869962547,100.7,2
0.0001954999999999999,0.009782110106756288,0.0007,98.82549999999999,1.6005023551824975,99.25,2
0.0005664999999999998,0.010107016705409026,0.00185,92.9985,2.7121812968411008,93.05,2
0.00011500000000000002,0.008557794942118953,0.0015,85.9385,2.7887548328219784,86.05,2
5.7500000000000015e-05,0.007178985507338265,0.0015,78.735,2.646373264920586,78.6,2
0.000511,0.005754899944120153,0.0015,72.082,2.6093138164975143,72.05,2
-6.450000000000005e-05,0.006697332383514822,0.0007,65.0065,2.838200957185173,65.0,2
0.0002005,0.00542725762949249,0.00035,57.57450000000001,2.872972258479005,57.55,2
0.0004049999999999999,0.0040450074693547475,0.0007,50.484500000000004,2.562957962508934,50.349999999999994,2
0.00021949999999999994,0.004009344581081704,-0.0008,44.2125,2.354594300852705,44.150000000000006,2
0.0002105,0.003960196400134492,0.0007,38.4865,2.0122658420535497,38.4,2
-0.00010249999999999998,0.003666189914947438,0.0007,34.068999999999996,1.4527184705832958,34.05,2
0.00017449999999999996,0.0030263831091945537,0.0007,30.1625,1.5446597094798753,30.1,2
0.00015099999999999998,0.0025276558747395826,0.0,27.048000000000002,0.9038143625822995,27.1,2
0.00037849999999999993,0.002495339928102766,0.0,24.258999999999997,1.2337054533917904,24.3,2
0.00023,0.002879855524014354,0.0,21.1915,1.082421327232719,21.05,2
0.0003064999999999999,0.0026964722440281238,0.0007,19.123499999999996,0.4977312850934761,18.9,2
0.00021649999999999995,0.002551495324698792,0.0007,18.914499999999997,0.21323012317009923,18.9,2
0.00018150000000000002,0.002763165424984386,0.0,19.185,0.05737122350475098,19.2,2
0.00023149999999999996,0.0030213408035599486,0.0,19.154999999999994,0.049874213637204776,19.2,2
0.0002845,0.0028263138537678364,0.0007,19.298,0.12758286301331165,19.2,2
0.00010949999999999998,0.003031370280730227,0.0,19.695,0.134407316144494,19.8,2
0.0032114999999999995,0.025798009695931136,0.0037,65.9595,3.592511719154345,65.35,0
-0.0023895,0.014304960651684125,-0.00115,72.381,1.0271877008922563,72.8,0
0.0006144999999999989,0.01573771323411365,-0.0015,72.156,0.5319576058976525,72.0,0
0.0010909999999999997,0.011305924937547892,0.00035,71.454,0.14171951915862666,71.4,0
0.0013165,0.009917305201631716,0.0007,71.52950000000001,0.10408611625951697,71.5,0
0.00010050000000000003,0.008030022168721,-0.0008,71.4215,0.2891466390855557,71.5,0
-5.699999999999997e-05,0.008038190938752276,-0.0015,68.98549999999999,1.7422447687310911,69.3,0
-0.00016249999999999994,0.00691765229804035,-0.0008,61.961499999999994,3.7775145041608678,62.4,0
3.999999999999997e-05,0.01284164081001596,0.0007,51.396,4.205653529243725,51.3,0
-0.0010330000000000003,0.015939332564855566,0.0,41.993,3.2297223615449244,42.150000000000006,0
-0.00012649999999999996,0.026078804959017054,0.0040999999999999995,33.2295,3.525938308418609,33.3,0
-7.049999999999987e-05,0.04198850620128176,0.00635,24.175,3.285245682742753,24.0,0
-0.0016950000000000003,0.07322483154486509,0.0086,16.570499999999996,2.6104890375321212,16.35,0
0.0038079999999999998,0.11603085552199395,0.010100000000000001,10.311,2.3357348493423133,10.5,0
0.00011200000000000099,0.16531338339544152,-0.00115,5.553999999999999,1.124860236991165,5.15,0
-0.0017835000000000001,0.16091057498954922,0.00485,4.309,0.19495908603122505,4.3,0
0.0064694999999999996,0.14810678756343956,0.038599999999999995,3.9925,0.14663306680761704,4.0,0
-0.0017545,0.13420918675259894,0.0105,3.9339999999999997,0.11667073455458978,3.9,0
-0.0007455000000000002,0.10401975063593359,0.00975,4.0365,0.138613921001743,4.0,0
0.00045149999999999856,0.1050013036423021,0.00975,4.251,0.17820715177770968,4.2,0
-0.0005969999999999998,0.11022295673751356,0.021699999999999997,4.6485,0.17735564588032757,4.7,0
0.0016205000000000008,0.09161089240799342,0.0131,4.7655,0.10731885520921801,4.8,0
0.0006589999999999995,0.08196227174099509,0.00595,4.8365,0.1292333404404879,4.8,0
0.0019904999999999996,0.07196770744105724,0.0052,5.254000000000001,0.31524737036589673,5.3,0
-0.0007630000000000001,0.06163901093744718,0.0052,6.517,0.755489790877814,6.4,0
-0.0003160000000000003,0.06162431031752449,-0.0008,9.386000000000001,1.4401995953241538,9.5,0
-0.008287,0.0687836264479904,0.00185,13.424000000000001,1.7928736653483144,13.1,0
0.00038150000000000006,0.06443599533821243,0.0112,18.599,2.2934030364149227,18.35,0
0.0044365,0.04348793418695864,0.0067,25.235500000000002,2.8804818395783545,25.25,0
-0.0059925,0.03166637475621429,0.00035,33.042,3.193371904523965,32.6,0
-0.0001349999999999997,0.033469523750727356,0.0097,42.051,3.2866562868268847,42.55,0
-0.0007639999999999998,0.027291201004376972,0.0026,49.376999999999995,2.6794342386399363,49.4,0
-0.0017180000000000003,0.014846290367914869,0.0007,56.138999999999996,2.573791173546357,56.1,0
6.049999999999986e-05,0.015296286203129181,0.0015,62.07200000000001,2.0180880548144877,62.05,0
0.0003644999999999998,0.013142339792675073,0.00035,67.20200000000001,1.7635893048498854,67.7,0
-4.9999999999999975e-05,0.007804875425143581,0.00035,70.4495,0.8212013200428997,70.6,0
-0.00010350000000000005,0.005166186715158427,-0.0008,71.53750000000001,0.16966935033237723,71.55,0
-0.0004670000000000001,0.004743926135162668,-0.0008,71.3685,0.2038763789394141,71.4,0
5.899999999999999e-05,0.005383346645491785,0.0011,71.028,0.14739275123145512,71.05,0
0.00030999999999999995,0.004720116257830646,0.0015,70.828,0.13381153776185023,70.8,0
0.000583,0.005645722443545,0.0,70.752,0.11775112157922797,70.8,0
-0.001108,0.020086802487475557,-0.003,71.01,0.2032400862608474,71.0,0
0.004051,0.022780951643619825,0.003,68.616,2.3376412971563565,69.4,0
-0.0014509999999999998,0.025118999175882586,0.003,57.95400000000001,5.537808285144498,57.55,0
-0.0012374999999999999,0.02175854349041131,0.0,46.276,3.3608033258396537,45.95,0
0.0009084999999999996,0.02823253545185414,-0.0008,37.515499999999996,3.7376005725867767,38.05,0
-0.00026999999999999984,0.034269606499757785,-0.0004,27.819000000000003,3.460812783961035,27.65,0
-0.001590000000000001,0.05849207479710695,0.00635,19.5955,2.9572209128907123,19.6,0
-0.0007955000000000012,0.07755729948409969,0.010100000000000001,12.48,2.5774632068983205,12.55,0
-0.0021644999999999993,0.1227718973693424,0.00375,6.378499999999999,2.004313877765408,6.1,0
-0.00271,0.17374192841235017,0.00295,3.33,0.4360627864985092,3.1,0
-0.004439500000000002,0.12389247643961963,0.0040999999999999995,3.4245000000000005,0.27058423669114295,3.5,0
0.0021574999999999993,0.10973797913243322,0.01875,3.6390000000000002,0.11682138580287645,3.6,0
-0.001544500000000002,0.11781124358619867,0.0018499999999999999,3.583,0.10986972642142873,3.6,0
-0.0008380000000000004,0.11956940692065335,0.024349999999999997,3.4005,0.17262312625657358,3.4,0
0.0011944999999999994,0.11672415199109479,0.022850000000000002,3.37,0.13672405544264485,3.4,0
0.0016410000000000007,0.10788433234174516,0.0097,3.341,0.13494461920082726,3.3,0
-0.0003530000000000011,0.09844637083536024,0.00745,3.366,0.15382558811130523,3.4,0
-0.0004249999999999996,0.06715226061368029,0.0056,3.769,0.30198505736935366,3.6,0
-0.0003319999999999998,0.06751730301956066,0.0082,5.0264999999999995,0.7384948362145656,4.9,0
-0.001004,0.0565558192181599,-0.0038,7.4695,1.199002831082864,7.2,0
0.0006949999999999997,0.0629420142734884,0.0071,11.066500000000001,1.511705665829331,11.3,0
-0.003957499999999999,0.06205958106335226,-0.0046,15.046500000000002,1.5899457182352725,14.9,0
0.0011679999999999998,0.047382220824389976,-0.0023,19.165,1.654497449089972,19.0,0
0.0009104999999999997,0.045814317611868965,0.0007,24.311999999999998,2.3521306496376475,24.7,0
-0.0010225,0.04066867405012088,0.003,30.112,2.1553383532720405,30.15,0
-0.0014070000000000003,0.027911568016607883,0.0007,35.326,1.919386417870442,35.5,0
0.001237,0.02167092466599885,0.0052,40.3185,2.0758742784909927,40.1,0
0.0014805,0.04122736649960149,0.0045,45.92400000000001,2.1687186778182155,45.9,0
-0.00040549999999999994,0.012549444711333414,0.0007,51.630500000000005,2.530958018707996,51.1,0
-0.0001350000000000002,0.017561626594459184,0.0011,59.30049999999999,3.1299412793310175,59.349999999999994,0
-0.0010429999999999999,0.016019019819573842,0.0,66.1555,2.179984267611852,66.45,0
0.002002,0.0077355406368736475,0.003,70.735,1.3258068558788936,70.85,0
0.00046899999999999985,0.008684928260755662,0.0007,72.4555,0.18854041327308455,72.5,0
0.0001989999999999998,0.009142935268645033,-0.0008,72.708,0.17316445838635908,72.8,0
7.199999999999997e-05,0.005984478751708306,0.0,72.49,0.2410196097028343,72.4,0
7.999999999999952e-06,0.004428475241527735,0.0,72.15,0.15433436259429426,72.1,0
-0.0003165,0.00744639656876375,-0.0004,72.0565,0.12899982470480004,72.0,0
-0.000489,0.0076632897012462,-0.0015,72.0055,0.2931714472581481,72.1,0
0.00010699999999999993,0.00778067125806833,-0.0008,68.2735,3.0500264023900483,69.0,0
-0.001421,0.014405190263674532,-0.0023,56.46050000000001,5.691966458158728,56.150000000000006,0
0.0006594999999999994,0.015016473692608525,0.0007,43.243500000000004,4.4125856718660765,43.0,0
0.0008674999999999999,0.023986342297944694,0.0037,32.9145,3.692793436794721,32.8,0
-0.00040599999999999995,0.03870631678155351,0.0071,24.128999999999998,3.092129577917647,24.1,0
0.00010700000000000043,0.05896314197494727,0.003,16.5415,2.7853038140718906,16.4,0
-0.0031765000000000005,0.09758600998335963,0.00375,9.8855,2.3388653672304756,9.75,0
-0.004177,0.14674882952115545,0.0131,5.258500000000001,1.1962788829654845,4.9,0
-0.00041200000000000123,0.161666334076917,0.02545,3.8975,0.16333136771114085,3.9,0
0.0025590000000000014,0.13103907092752043,0.024349999999999997,3.8265,0.16023773167786134,3.8,0
0.0004949999999999999,0.10680131544086661,0.00445,3.9395,0.13557897437087094,4.0,0
-0.0015704999999999994,0.06833994233493108,0.00075,4.5665,0.5400797912387789,4.4,0
0.001959000000000001,0.0661581751539331,0.0105,7.5975,1.8307929330809367,7.55,0
0.002474499999999998,0.058069893770893145,0.0112,12.593,1.9552663070943286,12.8,0
-0.0031325,0.059237887626096275,0.0112,17.3,1.7441935257523413,17.4,0
-0.0022034999999999997,0.04676514763062951,0.010100000000000001,21.997,1.931877780501129,22.0,0
0.0014944999999999997,0.04352280312328862,0.00485,27.5225,2.369284977906343,27.55,0
0.0007305000000000005,0.02450193346385825,-0.00075,33.649,2.480435810305366,33.3,0
0.0005740000000000001,0.024799343969277347,0.00485,39.8405,2.3450171164368734,39.5,0
-0.0042120000000000005,0.029845467253468986,0.0026,47.031000000000006,3.0214208445031274,47.05,0
0.0007094999999999996,0.0377683558454208,0.003,54.178999999999995,2.2516234232662002,54.7,0
0.0013534999999999997,0.012067872866733317,0.0022,59.07899999999999,1.9597351374727203,58.8,0
0.0005159999999999996,0.012021205886048783,-0.0015,64.5615,2.0632627111144575,64.65,0
-0.0015300000000000003,0.011461401249104093,-0.0015,68.87299999999999,1.2725833338954826,69.0,0
-0.00040550000000000026,0.011496065298034954,-0.0015,70.21600000000001,0.2065364046171053,70.2,0
0.0009250000000000003,0.010926192539813924,0.0022,70.5325,0.41539924489979035,70.6,0
-0.0007175000000000003,0.011456052963280478,0.00035,70.524,0.3275061854492783,70.4,0
0.0003605,0.0048929433085930524,0.0,70.058,0.155424528050105,70.0,0
0.0003405,0.002797559911295276,0.0,69.8565,0.11586576013585413,69.9,0
0.000131,0.0022776032099357303,0.0,69.766,0.09996984469952055,69.7,0
0.00025400000000000005,0.002578766017081479,0.0,69.6995,0.0841734867960045,69.7,0
0.0003230000000000001,0.003058618435448976,0.0007,69.69200000000001,0.08644863697115783,69.7,0
-0.016635,0.11247075052482797,0.0007,56.812999999999995,4.343507949403645,58.05,1
0.0046175,0.01892373330399697,0.0045,34.9335,17.56828823498572,37.8,1
0.056919000000000004,0.6112248865587393,0.0101,8.066,5.803537649247323,8.25,1
-0.04234250000000001,0.6556439900986758,0.0082,20.916,4.157108581549677,23.3,1
0.011187499999999996,0.10069218477181135,-0.0015,20.0665,2.9173588506244106,20.6,1
0.003460000000000001,0.20685125065973728,-0.012,11.666999999999998,2.8903775552789472,10.5,1
-0.0147525,0.17742678663841643,-0.0053,12.588000000000001,4.315503895183822,10.649999999999999,1
-0.00012599999999999946,0.3641837142330267,-0.0046,36.0765,13.135635590324856,36.349999999999994,1
0.007290999999999999,0.06500150380169994,-0.0008,54.98950000000001,3.8653907926494964,56.2,1
0.0070525,0.04853531371213828,0.0015,27.2015,19.58061413745748,29.299999999999997,1
0.052809499999999995,0.6402816671796733,0.010100000000000001,8.6875,8.740295048663315,7.699999999999999,1
0.05908850000000001,0.5357024477078212,0.04425,21.123,1.8920545319199449,21.2,1
-0.0159605,0.05610122840807035,-0.0091,14.988000000000001,3.837405949611085,15.3,1
-0.005476999999999999,0.3704504105876016,-0.02365,9.539,1.1206508338716774,9.1,1
-0.023543999999999995,0.20869396570242044,-0.03605,25.090999999999998,12.794361941395795,22.05,1
-0.007609500000000002,0.16376433294056225,-0.024399999999999998,55.238,7.74783198724086,59.5,1
-0.0015934999999999999,0.027210936829992264,0.0007,44.62649999999999,15.050509524088326,48.4,1
-0.057602499999999994,0.4091881024169053,-0.0124,9.571,9.320246454351372,8.2,1
0.0173415,0.6090768945256214,0.011949999999999999,19.823,5.9618781398795635,23.6,1
0.017071499999999996,0.12256353961912918,0.00185,19.718999999999998,3.9325134852353387,20.75,1
0.0010579999999999986,0.19882597788874845,0.00335,10.0685,2.5695272134193314,8.75,1
-0.013685000000000003,0.2031498933567387,-0.014249999999999999,15.937000000000001,7.823436700647944,13.6,1
0.0002519999999999989,0.21312866356302435,-0.01615,45.1825,12.524526440660907,47.0,1
-0.011128,0.05981414948314455,0.0015,52.94,7.786743018372371,56.650000000000006,1
0.0006264999999999992,0.17309802651000472,0.0086,17.969,16.151572849962264,13.0,1
-0.044566499999999995,0.6316087874862887,-0.0713,13.8105,6.9583282048948485,15.5,1
-0.026069500000000002,0.21178751065180992,-0.0177,20.541000000000004,1.252703207720474,21.0,1
0.009969500000000001,0.05914954830829546,-0.0079,14.0925,3.3288285095857897,13.45,1
0.004976999999999999,0.16733575543269633,0.0022500000000000003,10.9895,1.9190501602584389,10.2,1
0.0021530000000000004,0.21864920504160681,-0.0008,26.6115,10.912729082596652,24.8,1
-0.013571499999999998,0.20588892096621703,0.00825,51.724,6.540728525802088,54.9,1
0.000807,0.021398343311630753,0.003,43.736000000000004,11.918555441793082,46.5,1
0.016550999999999996,0.3163769604514884,-0.0109,11.015,10.18245485797376,5.45,1
0.00047499999999999653,0.6140224052473401,-0.04505,9.8725,4.674811553990879,10.1,1
0.005128999999999999,0.13963608034339953,0.0015,15.4065,1.073437979334338,15.7,1
0.022174000000000006,0.107788851028435,-0.003,9.5925,3.0857092796946977,9.0,1
-0.0014050000000000006,0.22194319291070183,-0.003,5.419,0.4348383861971635,5.3,1
-0.0099145,0.0382321570002854,0.00035,7.6775,2.036117043066367,7.5,1
0.0004979999999999995,0.010628306567958625,0.00035,11.764000000000001,3.8099056293460354,11.55,2
-0.0011294999999999999,0.0061338651155924025,-0.0015,22.7625,4.610785231634772,22.7,2
0.00018149999999999986,0.008288298208072007,0.0007,36.359,5.952046141146055,36.25,2
4.8499999999999966e-05,0.005971388881648841,0.0007,51.6835,5.646146704883369,51.9,2
0.0001675000000000001,0.006318457746274585,0.0007,66.887,6.338375661804113,66.55,2
-3.999999999999976e-06,0.003958844052391531,0.0,82.56650000000002,5.3802381511243595,82.95,2
0.00017550000000000006,0.008168301875398474,0.0015,93.32700000000001,2.969623599314909,93.8,2
9.500000000000009e-05,0.011365763409883527,0.0007,99.65899999999999,2.2206701419609765,99.6,2
-0.0007525000000000001,0.011895786752557036,-0.0015,106.0865,2.7627944032397465,105.95,2
-0.0004675,0.011158861712720434,-0.0015,112.506,2.014610951631149,112.8,2
-0.0006534999999999998,0.013849687976094475,0.0007,116.47699999999999,1.0802805330796061,116.7,2
-0.0002345000000000002,0.013724850357533357,0.0,117.31700000000001,0.4123849009513603,117.45,2
0.00038349999999999983,0.01361745767452896,-0.0008,116.5985,0.17749725739264055,116.6,2
0.0001749999999999999,0.009872869021392306,-0.0008,116.73,0.14970658068871837,116.7,2
0.00021699999999999996,0.011121558176865637,0.0007,115.835,0.5969562663374909,115.8,2
-0.0002234999999999999,0.00935850983230808,-0.00115,114.68350000000001,0.2975236994909714,114.7,2
-0.00047699999999999994,0.010977133427787847,-0.0008,114.2605,0.17447624422538294,114.3,2
-0.0008099999999999998,0.010782267221329696,-0.0008,113.6785,0.32359126461117965,113.7,2
-0.000543,0.008297450780043,-0.0008,112.68149999999997,0.42237394420551044,112.6,2
0.0001204999999999999,0.007337686143444576,-0.0008,111.6345,0.4737954841532577,111.7,2
0.00023349999999999996,0.00649356293168386,0.0007,109.34299999999999,1.3227240811956489,109.4,2
-0.00034050000000000004,0.0049450152303244415,-0.0008,106.20100000000001,1.0440542352919973,106.2,2
-0.000531,0.008520907718178183,-0.0008,101.859,2.7053862151020738,102.55,2
-0.0013069999999999998,0.007815758530496913,-0.0015,92.32900000000001,4.321764366110315,92.25,2
-0.0002244999999999999,0.005881027304885092,-0.0008,81.17,4.477245653659858,81.45,2
-0.0005939999999999999,0.006089315463504113,-0.0008,68.6845,5.098133440080235,68.7,2
-0.00041549999999999996,0.0060510400077903445,-0.0008,55.454499999999996,5.124929684528049,55.55,2
0.0002765,0.007744409411677459,0.00035,43.07900000000001,4.303692349505943,42.849999999999994,2
0.0010499999999999997,0.00804891453089348,0.0007,31.6155,4.822967429303312,32.0,2
-0.0009635000000000002,0.009718025408445687,0.0011,19.697,4.070754995225796,19.45,2
0.00046799999999999994,0.015702295578422946,0.0007,12.8705,1.1689791749889273,12.4,2
-0.0010050000000000003,0.01370880856095102,-0.0023,9.1485,2.0816735029452444,9.0,2
-0.00044449999999999996,0.014457335247628154,-0.0008,4.71,1.334768908913077,4.5,2
0.0003949999999999998,0.007622940450084048,0.0007,2.5795000000000003,0.376748519885853,2.5,2
0.00041999999999999996,0.005466738161888976,0.0,3.0565,0.47559299139846106,3.0,2
0.00023199999999999997,0.004954514311241972,0.0007,4.3685,0.619821460757919,4.3,2
-0.00035050000000000006,0.005798483578406102,-0.0004,6.504000000000001,1.0362689160308052,6.4,2
-0.00018550000000000012,0.008990577968687845,-0.0023,10.442,2.15542694764475,10.1,2
0.0006520000000000002,0.010208691537830546,0.0007,17.4965,3.3168274709972208,17.1,2
0.0013574999999999998,0.006197514800183415,0.0007,27.2245,4.152004994865364,27.05,2
0.00043449999999999983,0.006603026544527797,0.0015,40.034,5.768075717900831,39.650000000000006,2
0.00010400000000000006,0.005225659920817676,0.0007,54.8855,5.456390817543118,55.1,2
-0.0007525,0.00894160248641851,-0.0008,68.9975,5.534618665169643,69.05000000000001,2
0.00013499999999999987,0.008755424736216837,0.0007,82.76099999999998,4.779865539203411,83.25,2
-0.0003244999999999999,0.00803677163052466,-0.0004,92.93350000000001,3.3508159585300556,92.95,2
0.00015349999999999983,0.010193735772275782,-0.0008,100.77949999999998,2.6708043224173528,100.9,2
-0.0004060000000000003,0.009378970596352032,-0.0008,106.53349999999999,1.8427714953079763,106.6,2
8.24999999999998e-05,0.013539695733389425,0.0007,111.35050000000001,2.0059458727047215,111.2,2
-0.0007134999999999999,0.014461599394091092,0.0015,116.10650000000001,1.3704005759972062,116.6,2
-0.0007689999999999999,0.01189481703776099,0.0007,116.76650000000001,0.5502194628386321,116.75,2
0.0007759999999999999,0.012369874411845262,-0.0008,115.81200000000001,0.22873038263356807,115.8,2
4.949999999999996e-05,0.010759527728235721,0.0007,114.7245,0.6052946871495395,114.7,2
0.0003355,0.009386400391606884,0.0015,114.177,0.14960920617684104,114.2,2
-0.00041050000000000006,0.009165838901258255,-0.0008,113.64399999999999,0.6081225742616637,113.8,2
0.000537,0.009474352101262306,0.0011,112.29349999999998,0.3837238197574487,112.3,2
-0.00023149999999999996,0.010480201854187856,-0.0008,111.6165,0.1927785461071742,111.6,2
-6.900000000000009e-05,0.008341212027664337,-0.0008,111.3395,0.47689294859759657,111.5,2
0.00032099999999999994,0.008818320297217698,0.0,108.281,1.9176092213034808,108.4,2
-1.8500000000000043e-05,0.00571887536383996,-0.0008,102.0115,2.956454101499185,102.15,2
0.0005654999999999999,0.005497259230309785,0.0,93.35150000000002,3.8972735928192725,93.75,2
0.0006935,0.006009883630843567,0.0007,82.054,4.710821925745062,82.25,2
0.0003499999999999999,0.008136288833362516,-0.0004,67.1435,6.852828910045235,67.30000000000001,2
-0.000602,0.008424073901950746,-0.0008,50.3855,5.688120367624346,50.2,2
-0.00028800000000000017,0.007402902866732172,-0.0008,37.312,4.690582460536801,37.3,2
-0.0013225000000000003,0.01124464110221344,-0.0023,25.974,3.9756955081934247,25.9,2
-0.0001120000000000003,0.00921412265391595,0.00035,17.436,2.588125959048265,17.15,2
-0.0018195000000000004,0.010573564730285034,-0.0015,13.472999999999999,0.7059481667023092,13.6,2
-0.0016150000000000001,0.010819365431563375,-0.00115,11.8225,0.5625174480822662,11.8,2
-0.0007835,0.007152212838867582,-0.0008,10.951999999999998,0.16923119091910743,10.9,2
-0.0001615000000000001,0.006720909228242213,-0.0008,11.968499999999999,0.8463090125501549,11.9,2
-0.0023845000000000003,0.04177986471048142,-0.0042,-8.256499999999999,0.9437217831649861,-8.4,0
-0.0006250000000000002,0.056338592991851566,-0.0053,-6.886,0.4750075376286361,-7.1,0
0.0013404999999999997,0.0444708623453458,-0.0068,-6.239000000000001,0.16588123135114716,-6.3,0
-0.0010084999999999998,0.05109392550851175,-0.0049499999999999995,-6.29,0.137822258269018,-6.3,0
-0.00034050000000000025,0.06909880704778583,-0.0068,-5.971,0.3573478521513539,-6.0,0
-0.0007705000000000007,0.05354283571151375,-0.0094,-5.4910000000000005,0.16386966263362554,-5.5,0
-0.001424999999999999,0.05334069858586537,-0.0105,-5.548500000000001,0.1650270268713277,-5.5,0
-0.001623,0.04548322426397711,-0.0091,-5.605,0.16465282494940392,-5.6,0
-0.0010524999999999996,0.044355994691533826,-0.0049499999999999995,-5.6295,0.17899706631323276,-5.6,0
-0.0010240000000000004,0.04486124698898856,-0.003,-5.6725,0.16379221424486634,-5.7,0
0.0004899999999999999,0.038684110459076736,-0.0046,-5.765,0.1858702200285654,-5.8,0
-0.0008975,0.0345451135197216,-0.0079,-5.952999999999999,0.16832309204795073,-6.0,0
-0.0013754999999999998,0.0343942257300239,-0.0038,-6.004,0.1533020141344805,-6.0,0
-4.649999999999988e-05,0.030174324133850502,-0.0008,-5.972499999999999,0.14833667396912031,-6.0,0
-0.0010729999999999997,0.033998891069707694,0.0,-5.9705,0.15907948141427672,-6.0,0
-0.0005534999999999995,0.042297572162052266,-0.0083,-5.9555,0.1532552965794273,-6.0,0
-0.0024465,0.03334596459127571,-0.00605,-5.821500000000001,0.17504557913260566,-5.9,0
0.0004595,0.03569452627194952,-0.0063999999999999994,-5.8260000000000005,0.1788404864620702,-5.85,0
-0.0004365000000000002,0.03472302347935357,-0.0046,-5.895499999999999,0.1368333542458522,-5.9,0
-0.0009199999999999997,0.013207429004333993,-0.0008,-6.035,0.36295133054131173,-5.95,0
-0.001488,0.010353770269518723,-0.0008,-10.1795,3.41351581232679,-9.4,0
-0.0009650000000000001,0.014378892088350964,-0.0008,-22.854,5.912416370375435,-23.15,0
-0.001244,0.011812558856304936,-0.003,-37.958,5.897920253494696,-37.7,0
-0.0010639999999999998,0.009185940972910122,-0.003,-54.43600000000001,6.692199313999205,-54.3,0
-0.000862,0.008478495173202032,-0.0019,-69.504,4.544020755136973,-70.15,0
-0.0011575,0.003936154252758337,-0.0015,-75.4225,0.6534360284037604,-75.6,0
-0.0011270000000000002,0.003190386155169225,-0.0008,-73.155,1.2936547891798025,-72.5,0
-0.0009015000000000001,0.0029581584231209448,-0.0008,-72.01450000000001,0.21881303829672313,-72.0,0
-0.001066,0.0035018507669473645,-0.0008,-72.07600000000001,0.1654110154134252,-72.1,0
-0.0007600000000000002,0.0036021768962614547,-0.0008,-72.315,0.17211367051425508,-72.3,0
-0.001603,0.003497420585770156,-0.0015,-72.416,0.138709051633356,-72.4,0
-0.0008219999999999999,0.0032062150700439412,-0.0008,-72.4435,0.13730262215358802,-72.5,0
-0.0012935000000000002,0.0028385019316675476,-0.0008,-72.464,0.13111044866349672,-72.5,0
-0.000964,0.0025609757876490407,-0.0015,-72.4685,0.13207942638568504,-72.5,0
-0.0008910000000000001,0.003006194442334965,-0.0008,-72.4605,0.1355789743708701,-72.5,0
-0.0010639999999999998,0.0027724604024975882,-0.0015,-72.4525,0.14386534044343038,-72.5,0
-0.000804,0.0036194871787569483,-0.0008,-72.40299999999999,0.13742425963299998,-72.4,0
-0.000565,0.005916519331923554,-0.0008,-72.3525,0.1516864989702422,-72.35,0
-0.0010075000000000001,0.009083940976709483,-0.003,-72.61200000000001,0.5347765230900114,-72.6,0
-0.0013534999999999999,0.013427395971029309,-0.0038,-67.5535,3.9533825921099512,-68.35,0
-0.000982,0.019720921625237087,-0.0008,-52.071999999999996,8.065748414588517,-52.75,0
-0.0018405000000000001,0.034193090632245064,-0.0008,-29.8275,8.39673265900098,-29.1,0
0.0010280000000000003,0.05835188797417573,-0.00075,-13.384,4.18125080465849,-12.4,0
-0.0032120000000000004,0.10015083175644393,-0.0143,-6.081,1.9735535381233507,-5.85,0
0.0003920000000000015,0.11825948743267573,-0.0143,-2.3065,1.0046163546849625,-2.1,0
-0.0023379999999999994,0.11078368689663684,-0.018750000000000003,-0.8325,0.2893307995319354,-0.8,0
-0.0014315,0.11128414831448546,-0.0165,-0.45049999999999996,0.1656409812617842,-0.5,0
0.0020505000000000002,0.0771801553617139,-0.007549999999999999,-0.435,0.18010326462795784,-0.5,0
0.00023700000000000056,0.05329773988061698,-0.0034000000000000002,-0.7184999999999999,0.1873050074855067,-0.7,0
-0.0011715000000000002,0.04867068951472945,-0.00115,-1.1295,0.2411858267292572,-1.1,0
-0.0011964999999999999,0.04152234898311241,-0.0046,-1.511,0.16828726337746233,-1.5,0
-0.000248,0.04667406601305434,-0.0015,-1.5995,0.14750777170565568,-1.6,0
-0.0004120000000000001,0.04484114401958233,0.0007,-1.7855,0.200851829183685,-1.8,0
0.00035250000000000033,0.044756121882708944,-0.0046,-1.9689999999999999,0.15380925340226057,-1.95,0
-0.00024099999999999998,0.041771545687773276,-0.003,-2.0235000000000003,0.1656349136598791,-2.0,0
-0.0015865000000000002,0.03877677992117547,-0.01165,-2.194,0.15224946468703077,-2.2,0
-0.0012745,0.025173091235718523,-0.0046,-2.522,0.23853826215633164,-2.5,0
-0.0017255,0.01109743506740981,-0.0015,-4.8635,2.2068230763820336,-4.0,0
-0.000718,0.009894954604906777,-0.00115,-16.3765,7.256665468284519,-15.0,0
-0.0006665,0.014280296287553056,-0.003,-39.9745,10.154005064220767,-40.25,0
-0.0013269999999999998,0.011092211537106546,-0.003,-62.1295,6.699267172853039,-63.0,0
-0.000862,0.004814441842130431,-0.0008,-74.383,2.786869968460234,-75.35,0
-0.000963,0.002591681900885384,-0.0008,-76.002,1.0319499033456396,-76.35,0
-0.0009715,0.0025786790568800826,-0.0008,-74.502,0.254992363665342,-74.5,0
-0.001089,0.001920212247481222,-0.0008,-74.323,0.15682464681690284,-74.3,0
-0.001002,0.002423191134925577,-0.0008,-74.2715,0.13612641922143714,-74.3,0
-0.001029,0.0024205898612490936,-0.0008,-74.298,0.1295372513892728,-74.3,0
-0.0008855000000000002,0.002138458504126127,-0.0008,-74.2925,0.13961090942383753,-74.3,0
-0.0009289999999999999,0.0028380329729900764,-0.0008,-74.30149999999999,0.14052217765200117,-74.3,0
-0.0010355,0.007002418085577736,-0.0015,-75.0475,0.7012506774063137,-74.8,0
-0.0002614999999999999,0.010828102640071323,-0.0015,-75.88850000000001,1.0076679629809067,-76.2,0
-0.001137,0.010152586174475483,-0.003,-66.706,6.56207805056512,-67.5,0
0.0006440000000000001,0.03198689844861188,-0.0015,-46.977000000000004,8.059537937052843,-46.8,0
-0.0016324999999999998,0.033578829381968,-0.0004,-27.4895,6.901200809501583,-26.9,0
-0.0028954999999999996,0.052941377741192924,-0.0091,-13.8455,3.839438263718345,-13.649999999999999,0
0.00058,0.08345628952515526,-0.01205,-5.417000000000001,2.7008859517986163,-5.15,0
0.0016595000000000015,0.17665824801778593,-0.0188,-0.7560000000000001,0.8933388334539043,-0.5,0
-0.0036669999999999993,0.1737689976194497,-0.0229,0.3845,0.26957951624314774,0.4,0
-0.0027649999999999984,0.14399887344268986,-0.01205,0.7959999999999999,0.17759985513145438,0.8,0
-0.004622999999999999,0.10081939407728337,-0.012400000000000001,0.633,0.1964790576639213,0.6,0
0.0020185,0.08023701577985237,-0.003,0.29150000000000004,0.20855509135634442,0.3,0
0.0016185000000000006,0.0703817252130825,-0.0015,-0.10149999999999998,0.23965584621101074,-0.1,0
0.00044550000000000037,0.07198799648510647,-0.0109,-0.556,0.21725560982400444,-0.5,0
0.002443999999999999,0.055937409961186325,-0.0098,-1.0665,0.25603813707764495,-1.1,0
-0.0012305000000000003,0.02603428006383528,-0.0023,-1.5715000000000001,0.4423983856868055,-1.4,0
-0.0008874999999999999,0.012711479153163348,-0.0015,-5.5714999999999995,3.164332909764568,-4.8,0
-0.0006360000000000002,0.009996225619360831,-0.0015,-17.824,6.323730849688059,-16.45,0
-0.00046150000000000005,0.010808728454541732,-0.0015,-35.914500000000004,7.19528319465303,-35.85,0
-0.0008829999999999999,0.0081287325249581,-0.0015,-55.2465,7.819694743364153,-55.1,0
-0.000918,0.00840682756744443,-0.0015,-74.42049999999999,6.275463085276925,-75.6,0
-0.0009860000000000001,0.0021590533939180243,-0.0008,-81.14,1.3238819118723983,-81.55,0
-0.0009674999999999999,0.0023136678770355372,-0.0008,-79.14200000000001,0.48301398795771466,-79.2,0
-0.0009715,0.002303075887311046,-0.0008,-79.3055,0.20080178481258582,-79.3,0
-0.000905,0.0021116272988494526,-0.0008,-79.2875,0.1575367868022583,-79.3,0
-0.0010035,0.0023077622457511895,-0.0015,-79.509,0.1765640800725313,-79.5,0
-0.001097,0.0018401690440154582,-0.00115,-79.569,0.14297274575998922,-79.6,0
-0.001025,0.007432785920007608,-0.0008,-79.942,0.51503622353946,-79.7,0
-0.001085,0.013993123760004911,-0.003,-80.6795,0.5526816761716271,-80.9,0
-0.001345,0.01463864147114079,-0.0053,-74.192,5.220142280353636,-75.4,0
0.00037449999999999983,0.025592696817686302,-0.0008,-55.001000000000005,9.391485451991867,-55.650000000000006,0
-0.0009459999999999999,0.0352327606228284,-0.0046,-31.034499999999998,8.246178329091354,-29.85,0
-0.0034420000000000006,0.049663111655397524,-0.0063999999999999994,-14.725,4.608063175690606,-14.0,0
0.0002414999999999995,0.10138465698075586,-0.009399999999999999,-5.414000000000001,2.9721494514591704,-5.2,0
-0.005253,0.08299414879781207,-0.01465,-0.6700000000000002,0.7394823668311984,-0.4,0
-0.0028859999999999997,0.09499377500895657,-0.0169,-0.1015,0.14613186720584043,-0.1,0
-0.0053695,0.08789529700689139,-0.0218,0.006499999999999999,0.15173287159217688,0.0,0
0.0037040000000000016,0.09385119882882713,-0.0022500000000000003,0.2465,0.18097377582867769,0.2,0
-0.0012175000000000007,0.08268659874374473,-0.0109,0.3425,0.1474873301772531,0.4,0
-0.0011164999999999994,0.07170618777046278,-0.0019,0.16550000000000004,0.15710877069452778,0.1,0
-1.9500000000000352e-05,0.0768116260682342,-0.01165,0.09649999999999999,0.16666323279544634,0.1,0
-0.0033045000000000006,0.08226512922974065,-0.01315,0.092,0.18358791521520507,0.1,0
-0.0017059999999999998,0.06041197728095789,-0.0023,0.017,0.16868096019307677,0.0,0
-0.0010904999999999999,0.023177247111517398,-0.0038,-0.8244999999999999,1.0842637545575502,-0.35,0
-0.0012134999999999997,0.02297402876594989,-0.0056500000000000005,-5.0995,1.8316726984840555,-5.7,0
-0.000478,0.014852477789325658,-0.0015,-11.328000000000001,4.073287906821625,-9.9,0
-0.0008765000000000001,0.007912416154183555,-0.0015,-28.897,9.3202967041434,-28.1,0
-0.0009155,0.010773548929329801,-0.0015,-55.887,10.721079175785771,-56.5,0
-0.0008565000000000001,0.00825851518831188,-0.0008,-78.01899999999999,6.166845947867003,-79.15,0
-0.0011205000000000002,0.0036915943839318775,-0.0015,-85.79449999999999,0.8922445019479156,-85.9,0
-0.001055,0.003307608861686874,-0.0008,-85.387,0.3571678096093018,-85.5,0
-0.0008864999999999999,0.003741048646419126,-0.0008,-85.686,0.2453671231555445,-85.6,0
-0.000572,0.003752026722001466,-0.0015,-86.87200000000001,0.6746791532269198,-86.9,0
-0.001018,0.002711649167209903,-0.0015,-87.49650000000001,0.17661743569920998,-87.5,0
-0.0010285000000000001,0.002584771356391918,-0.0015,-87.325,0.16916882234106068,-87.3,0
-0.000781,0.00735398152167285,-0.0008,-0.05650000000000006,0.9870812514605495,0.0,1
-0.0007675,0.0023447779571511063,-0.0008,1.8505,0.5781618333370316,2.0,1
-0.0013245000000000002,0.006335094066718415,-0.0008,-2.8775,4.174743846142482,-2.0,1
-0.0009404999999999999,0.010970788520146067,-0.0008,-22.640500000000003,10.814335811561712,-22.75,1
-0.0008515,0.0029027448022405722,-0.0008,-39.6875,2.3893595260495273,-40.4,1
-0.0013714999999999999,0.009721722956152416,-0.0015,-32.927,5.0483164017781545,-32.650000000000006,1
-0.0010985000000000005,0.03368923523327615,-0.0063999999999999994,-18.596,6.4363746467219265,-19.700000000000003,1
-0.0003275,0.027254263301187433,-0.0019,-6.2725,2.8361970698622962,-6.9,1
-0.0013305,0.010086899795647686,-0.0015,-0.07249999999999972,2.073060939357899,0.05,1
-0.00119,0.00787824432651981,-0.0015,3.1385,0.5797831426165402,3.1,1
-0.0011294999999999999,0.005778923736106818,-0.0015,4.6255,0.5559181368460395,4.6,1
-0.0012530000000000002,0.00444362690833766,-0.0015,5.764500000000001,0.34827608467389604,5.8,1
-0.001199,0.00931072213814097,-0.0015,6.082000000000001,0.1584345528528687,6.1,1
-0.0009515,0.011428752322464658,-0.0015,5.625500000000001,0.3481462033319798,5.7,1
-0.0009375,0.004032897850848303,-0.0008,2.474,2.8338449828695054,3.6500000000000004,1
-0.000961,0.0024825782917914973,-0.0008,-11.889,8.172172355318082,-11.45,1
-0.0006634999999999999,0.0019681426976700554,-0.0008,-30.429000000000002,5.119168725702551,-31.45,1
-0.0011055,0.0017003161840164148,-0.00115,-28.538999999999998,6.680104639146737,-30.05,1
-0.001141,0.005043939494892924,-0.0008,-6.150500000000001,9.027690498053378,-4.4,1
-0.0015160000000000002,0.020575248436925517,-0.0038,1.2755,2.637447706023771,1.2000000000000002,1
-0.0003800000000000001,0.015882346952626934,-0.0015,-0.3340000000000001,1.5268925977373558,-0.1,1
-0.0011120000000000001,0.005942518289251658,-0.0015,2.339,0.650997688129342,2.6,1
-0.001013,0.0018790115545441832,-0.0008,2.168,0.5477005380652691,2.2,1
-0.001024,0.0018357214840040868,-0.0008,-1.4635,3.414088126966477,0.25,1
-0.0009905,0.003204387656207702,-0.0008,-23.2625,14.120096649704102,-21.15,1
-0.0009630000000000001,0.002129838505685702,-0.0008,-51.56700000000001,5.960262970152141,-53.6,1
-0.000661,0.005533341516815001,-0.0008,-33.263999999999996,17.609505313521296,-35.849999999999994,1
-0.0013815,0.018895395938917026,-0.003,0.09950000000000003,6.263730626135187,1.9,1
-0.0007699999999999999,0.01522496957279266,-0.00265,-0.8789999999999999,1.140333637151908,-1.0,1
-0.000722,0.004227323897773084,-0.0008,0.7084999999999999,1.579510053798409,0.3,1
-0.0008975,0.002512030100562224,-0.0008,2.2915000000000005,0.6214569928561821,2.4,1
-0.0009720000000000001,0.002946664241265668,-0.0008,-2.0335,3.824442383895813,-0.45,1
-0.000962,0.004879951396083843,-0.0008,-24.8295,13.979391858506157,-24.3,1
-0.001078,0.002522883410607311,-0.0008,-48.3525,4.36732888134028,-49.4,1
-0.0013534999999999999,0.008132173694343652,-0.0015,-25.030500000000004,17.51222458167422,-26.7,1
-0.0017330000000000002,0.02087522902711903,-0.0015,1.3530000000000002,4.004794990330079,1.45,1
-0.0010600000000000004,0.01590126255219279,-0.0015,-1.3615000000000002,1.285390561063974,-1.0,1
-0.000961,0.0024341331147043925,-0.0008,1.1655,1.1831139178936103,1.6,1
-0.0010015,0.0025105501509234017,-0.0015,1.2080000000000002,0.916754160587654,1.15,1
-0.00117,0.003843979826237724,-0.0008,-10.101999999999999,10.09865387317791,-6.8,1
-0.000767,0.004504370964845674,-0.0008,-41.765,11.320683032467969,-44.6,1
-0.001545,0.002759009909078246,-0.0015,-40.976000000000006,12.62739400656307,-45.55,1
-0.0006255000000000002,0.012876311456844635,-0.0019,-4.369,11.39858225337408,1.6,1
-0.00038899999999999997,0.016893350926552083,-0.0015,-0.07200000000000002,2.37586609439431,-0.5,1
-0.0016365000000000002,0.0036714459449422865,-0.0015,0.6010000000000001,1.1349181450571226,0.4,1
-0.0010935,0.002563035996155329,-0.0008,2.301,0.4145579470439401,2.4,1
-0.001149,0.0019190918601878332,-0.00115,-0.6779999999999999,2.8709629291761183,0.6,1
-0.0010140000000000001,0.004095015231808514,-0.0015,-21.303,14.202094508987434,-18.15,1
-0.0008424999999999999,0.0031410787363803394,-0.0008,-50.231,6.114382007748896,-52.2,1
-0.000792,0.0059876955911654615,-0.0015,-30.6765,18.132019978272208,-33.5,1
-0.0009044999999999999,0.024605978963531793,-0.003,-1.1545,4.170207778345448,-0.9,1
-0.0009040000000000001,0.019108191934219598,-0.0015,-2.6315,1.5786762949449467,-2.4,1
-0.0011285000000000002,0.0023254194520861606,-0.0008,1.215,1.5980437161082182,1.25,1
-0.0008124999999999999,0.002738593291469256,-0.0008,2.1045000000000003,1.158984892006577,2.6,1
-0.001335,0.011000985565715715,-0.0015,-7.438,7.582077253456799,-5.25,1
-0.001231,0.0050272462666081505,-0.0008,-34.788999999999994,11.057991448467115,-38.65,1
-0.0016619999999999998,0.00347178954043377,-0.00115,-43.12799999999999,4.45870116518275,-45.5,1
-0.0014195000000000002,0.017719068732122135,-0.00265,-26.33,7.459963490284781,-25.9,1
-0.0005790000000000001,0.02001409450598433,-0.0015,-10.0705,4.550186892180238,-8.9,1
-0.00013600000000000024,0.020561622152146408,-0.0015,-3.091,1.85239733302469,-2.8,1
-0.0012585,0.022145649158088948,-0.0034000000000000002,0.8495000000000001,1.2557004691970572,1.2,1
-0.00012599999999999992,0.015570272667964872,-0.0042,2.9805,0.5040237591113577,3.1,1
-0.0014950000000000002,0.015184360341976053,-0.0046,3.2485000000000004,0.22882208752367725,3.2,1
-0.0012660000000000002,0.015356452950996883,-0.003,3.3145,0.19031777182217333,3.3,1
-0.0014725000000000003,0.01123728958137497,-0.0015,2.5725,0.9216512110195856,3.0,1
-0.0010945000000000002,0.002603885722198914,-0.0008,-4.183,4.773914778413812,-3.1,1
-0.0008475000000000001,0.0019592824422329236,-0.0008,-16.294500000000003,3.6155609738709833,-17.75,1
-0.0009009999999999999,0.0018865029730527024,-0.0008,-17.688000000000002,2.2214930015147223,-18.4,1
-0.0008605,0.0020258851902366266,-0.0008,-8.640500000000001,4.426656320622207,-8.7,1
-0.00189,0.008472390868885587,-0.0008,0.365,2.1593724660734592,1.5,1
-0.0010515000000000001,0.019896859623174744,0.0007,1.0935,1.0233002820954773,1.3,1
-0.0005680000000000003,0.013082750774940104,-0.0015,1.9325,1.1586657332496881,2.4,1
-0.0008345,0.00825535061757497,-0.0015,3.353,0.4209238463452867,3.5,1
-0.0010615,0.0020569694618137067,-0.0008,2.9820000000000007,0.40334779934466064,3.0,1
-0.001167,0.0020582743906818364,-0.0015,-1.0725,3.433516993510243,0.0,1
-0.00111,0.0031284880031621732,-0.0008,-19.479499999999998,11.23748795003295,-18.0,1
-0.000903,0.002117287303990223,-0.0008,-41.093500000000006,4.314729679951605,-42.45,1
-0.0012840000000000002,0.002218796812797966,-0.0015,-27.041999999999998,13.257846297276608,-29.15,1
-0.0008640000000000001,0.012026704122921686,-0.0015,1.6700000000000006,6.532000855471429,4.65,1
-0.0009220000000000003,0.02503874617568242,-0.0019,1.736,2.3791185395279557,1.05,1
-0.0020130000000000005,0.008245682957595814,-0.0015,1.305,1.2531668427142462,1.5,1
-0.001,0.0015775434117894797,-0.0008,3.1504999999999996,0.5160730636597652,3.3,1
-0.0012325,0.002748447483187408,-0.00115,1.7189999999999999,1.048444169176117,1.9,1
-0.0016635,0.003128763904138373,-0.0015,-6.809,6.744915747599152,-5.15,1
-0.000693,0.0025573130921450115,-0.0008,-33.713499999999996,12.167882088622203,-35.9,1
-0.0011229999999999999,0.0020281860598740284,-0.0008,-43.5985,7.3282648065812195,-46.6,1
-0.001473,0.005843586958599448,-0.0015,-13.5615,13.670018830423041,-11.75,1
-0.0013580000000000003,0.020245878940425177,-0.00265,2.0860000000000003,1.82084634360925,2.1500000000000004,1
-0.0012215,0.018075369502815606,-0.0015,0.9199999999999998,1.3506745011438552,1.5,1
-0.000999,0.0026374761424532442,-0.0008,2.8685,0.5556089058694135,3.0,1
-0.0009270000000000001,0.002337217131461685,-0.0008,2.79,0.49204730744494385,2.8,1
-0.0011135,0.0026096010881351147,-0.0015,-0.7229999999999999,3.025182580976098,0.45,1
-0.0010995,0.003218265981805767,-0.00115,-17.8405,11.088633763621136,-15.45,1
-0.0005115,0.00243599839715768,-0.0008,-42.5735,6.079320557612587,-45.349999999999994,1
-0.001089,0.0016558648623034,-0.0015,-32.755,12.755665801919214,-34.8,1
-0.0009609999999999999,0.0067592987504614685,-0.0008,-1.0654999999999994,8.955476679820794,4.05,1
-0.0001390000000000001,0.013381329489048252,0.0,1.485,2.7936890472030567,0.8,1
-0.000854,0.008121791767063333,-0.0015,0.47600000000000003,1.0414639869822209,0.7,1
-0.0009325,0.0017171888181519033,-0.0008,2.5885000000000002,0.7564249091721396,2.9,1
-0.0012370000000000003,0.0019829755318205504,-0.0008,1.7664999999999997,0.9990587278576484,1.7,1
-0.0010395,0.0017910693445494844,-0.0008,-4.053,4.389971554720631,-2.95,1
-0.000734,0.0022613963756580144,-0.0008,-28.530500000000004,13.982599371214189,-29.35,1
-0.0010125000000000002,0.0028330060654425332,-0.0008,-49.07950000000001,4.124937002716756,-50.0,1
-0.0012605000000000003,0.007620785498099273,-0.0015,-24.006,16.633929241464575,-24.3,1
-0.00014050000000000003,0.018141327087411837,-0.0015,0.2635,2.7024682092691767,0.35,1
-0.0005745,0.017345243935613285,-0.0038,-1.7380000000000002,1.5123465078476548,-1.15,1
-0.0007734999999999999,0.009551755225582737,-0.0008,0.8125,1.1306571887145809,0.5,1
-0.0014125,0.0033324344474773464,-0.0015,1.834,0.3334666400106613,1.9,1
-0.0012345000000000001,0.003716925804638279,-0.0015,-1.1115000000000002,2.563312427897753,-0.2,1
-0.0008815,0.009262910737270064,-0.0008,-15.513,9.836381601741332,-12.75,1
-0.0005870000000000001,0.002482791223866105,-0.0008,-42.53,8.575704843792098,-43.9,1
-0.0012995,0.0021595062133337654,-0.0015,-44.66750000000001,6.965968513902674,-47.0,1
-0.0015565000000000002,0.024376097480769143,-0.0019,-22.7925,8.22376099937701,-21.1,1
2.1499999999999852e-05,0.02035210872113711,-0.0008,-7.831999999999999,3.8329012064350745,-6.8,1
-0.0013484999999999999,0.010123945332501424,-0.0015,-1.7394999999999998,2.044379413399002,-2.0,1
-0.001011,0.008301139898718151,-0.0015,2.2239999999999998,0.9825737917741383,2.4,1
-0.0012035,0.00805995983318545,-0.0023,3.98,0.49082025489283204,4.0,1
-0.0009255000000000001,0.005397812673508736,-0.0015,4.6685,0.16702465740394304,4.7,1
-0.0010655,0.002767354513795643,-0.00115,5.046,0.25555929402747035,5.0,1
-0.0010675,0.0023240481382156694,-0.0008,5.343,0.14336585661942355,5.3,1
-0.0008375,0.0019885965733799035,-0.0008,5.235499999999999,0.1812567794608038,5.3,1
-0.000907,0.0026648750053182343,-0.0008,4.0840000000000005,1.083148212504298,4.5,1
-0.001021,0.002476271106515768,-0.0015,-2.6395,4.338548694421828,-2.1,1
-0.0011315,0.0023877740838230254,-0.0015,-16.173000000000002,5.778601228740743,-16.15,1
-0.000879,0.0022974880318037357,-0.0008,-26.782999999999998,2.0595679402492437,-27.5,1
-0.0009745000000000001,0.0023329838874487484,-0.0008,-21.537,6.378539001918463,-23.0,1
-0.0012845,0.012216271781159577,-0.0015,-3.9960000000000004,5.399123695880388,-1.25,1
-0.0002060000000000002,0.01808409345753623,-0.003,-1.6535,1.495516834748134,-1.8,1
-0.000863,0.010539947031037939,-0.0015,-0.898,1.6800921247772969,-0.55,1
-0.0008774999999999999,0.005932691454091246,-0.0008,1.9365,0.6134323485366218,2.2,1
-0.0009705,0.0019472902832490529,-0.0008,2.0015,0.20434415250580745,2.0,1
-0.001033,0.0016505552590920993,-0.0008,-0.5875,2.8307879738270447,0.6499999999999999,1
-0.0009005,0.002322373103997472,-0.0008,-18.6785,12.156446177577626,-16.15,1
-0.0007830000000000001,0.0023650960650647822,-0.0008,-46.2225,7.133933612949439,-49.7,1
-0.0012200000000000002,0.0014146398941606146,-0.0008,-38.2215,12.83692020508653,-40.8,1
-0.0011520000000000002,0.012087020988726277,-0.0015,-3.0985,10.876263757218409,2.95,1
-0.0005239999999999998,0.018852216163394594,-0.003,0.9285,2.908908125467711,0.2,1
-0.000523,0.00907409870657596,-0.0015,0.08600000000000002,1.1869491316842642,0.1,1
-0.0008985000000000001,0.002290453807265294,-0.0008,2.3930000000000002,0.6430541135587454,2.55,1
-0.0009540000000000001,0.0020718704680025004,-0.0008,1.859,1.129690223025764,2.2,1
-0.0012915,0.002699409529701861,-0.0008,-9.3185,9.149786923954505,-6.8,1
-0.0010605,0.003230304021350276,-0.0008,-40.268,12.25262051757658,-41.75,1
-0.0013534999999999999,0.0022853669861329796,-0.0015,-46.562,9.628420869603232,-51.25,1
-0.0015179999999999998,0.017364255319882574,-0.003,-8.899999999999999,15.814769510598842,-3.9000000000000004,1
-0.0012555000000000003,0.022317531917856025,-0.0034000000000000002,1.8775000000000004,2.7255064994220723,0.8500000000000001,1
-0.001512,0.00484604755284367,-0.0015,1.062,1.0320765037281583,0.8,1
-0.000837,0.002676461888614525,-0.0008,2.2449999999999997,0.6843366005954772,2.4,1
-0.0013369999999999999,0.002446211510431762,-0.0015,-0.4015000000000001,1.9369840697414529,0.4,1
-0.0008945,0.0034454280754523934,-0.0008,-17.327,13.009404058981689,-13.4,1
-0.0004125,0.0031571715841968895,-0.0008,-49.225500000000004,8.725708549939792,-53.5,1
-0.0012925,0.0029210368073940376,-0.0008,-37.9375,16.71385678992045,-42.7,1
-0.0014745000000000003,0.015067212889959334,-0.0015,-0.4750000000000006,8.613444848653991,2.5,1
-0.00048200000000000006,0.015916218333201858,-0.0015,1.3719999999999999,1.5545090840719815,1.5,1
-0.0007000000000000001,0.008033291283416854,-0.0008,2.2795,0.8755929792584181,1.8,1
-0.0009695000000000001,0.0022683356194381967,-0.0008,2.7365,0.4611736720357036,2.7,1
-0.0008384999999999999,0.0029883303602025904,-0.0008,-1.8075,3.9363904275350974,-0.5,1
-0.0008995,0.003962176670701253,-0.0008,-23.274,12.751621199521276,-22.6,1
-0.0011374999999999998,0.0030082372256905105,-0.0008,-47.3355,4.934107501278306,-49.1,1
-0.0008605000000000002,0.003032054836684738,-0.0008,-29.811999999999998,15.533101500056427,-31.1,1
-0.0006185,0.014202427697846692,-0.0008,1.145,6.50301630826247,4.0,1
-0.0009169999999999998,0.019914874393541962,-0.0008,3.4160000000000004,1.1413401274081965,3.1,1
-0.0010220000000000001,0.007695532607334777,-0.0015,2.6825,0.34964986075448135,2.6,1
-0.000882,0.00624258965719682,-0.0015,2.1270000000000002,0.6561429860102541,2.3499999999999996,1
-0.0008929999999999999,0.0027074902617715804,-0.0008,0.77,0.426626359067576,0.9,1
-0.000786,0.002759160894949965,-0.0008,-1.083,0.9281802588747646,-1.35,1
-0.0008810000000000002,0.0022055751651315868,-0.0008,-2.454,0.2588804656156717,-2.5,1
-0.0007705,0.004410959369889283,-0.0008,-3.9505,1.5727579559295506,-3.1500000000000004,1
-0.0012605,0.0022994187052186787,-0.0008,-5.834,1.4404577720172238,-6.25,1
-0.0007630000000000001,0.0028591440192150272,-0.0008,-1.4769999999999999,1.525419787349759,-1.0,1
-0.0006995,0.004988161840068295,-0.0008,-1.058,0.5892129150795002,-1.35,1
-0.0011505,0.002796983254621515,-0.0008,-1.725,0.3125113063281305,-1.8,1
-0.001316,0.008672717228216484,-0.0015,-0.5940000000000001,0.6608689270146288,-0.35,1
-0.0010299999999999999,0.014894850885946217,-0.003,1.7755,1.2641757995869503,2.2,1
-0.001053,0.01063815976642955,-0.003,3.248,0.6193658614678071,3.1,1
-0.000885,0.00506508146541162,-0.0015,4.6295,0.4670873612238671,4.5,1
-0.0008395,0.0020064443287121396,-0.0008,5.361000000000001,0.18315767433646257,5.3,1
-0.0009965,0.0018531889532593293,-0.0008,4.5895,0.597347360709607,4.6,1
-0.0010689999999999999,0.0019175043977988392,-0.0008,1.2785,2.418643614647137,2.1,1
-0.000941,0.003911074214015593,-0.0008,-14.804,11.675459983621447,-11.35,1
-0.0001805,0.002874435885228867,0.0,-42.074,6.9762932375784965,-45.25,1
-0.0011320000000000002,0.001771430447165716,-0.0015,-33.4715,12.820772158638444,-35.599999999999994,1
-0.001083,0.005621129466789754,-0.0015,-1.6620000000000004,9.165428599200093,2.8,1
-3.25000000000001e-05,0.022325609914181543,-0.003,2.7415,2.4862289560920487,2.6,1
-0.0006465000000000002,0.018023069743104917,-0.0015,1.2089999999999999,0.8763325818260149,1.3,1
-0.0012425,0.002146480992989765,-0.0008,1.7630000000000001,0.44646123929290255,1.8,1
-0.00091,0.0020584425980940623,-0.0015,0.653,0.7896255712130706,0.4,1
-0.0014145000000000002,0.0036962618288667905,-0.0015,-5.700000000000001,6.111690749628573,-3.3499999999999996,1
-0.0006889999999999999,0.0029733454078819813,-0.0008,-34.878,14.671594816936631,-36.75,1
-0.001037,0.00208006353787764,-0.0008,-49.16299999999999,6.78481388819822,-51.95,1
-0.001451,0.011304621681276376,-0.0015,-13.6945,18.175020677654416,-11.05,1
-0.0008754999999999999,0.023811988656322766,-0.003,2.1295000000000006,3.8002221238968104,1.7,1
-0.001125,0.010299615790267868,-0.0015,-0.6880000000000002,1.5330057184052888,-0.4,1
-0.000897,0.0015356372975243006,-0.0008,1.3860000000000001,0.5891856231209845,1.4,1
-0.000991,0.0017600876519973559,-0.0008,0.02200000000000003,1.0929725269756865,0.4,1
-0.001037,0.0034661943854302144,-0.0008,-13.293000000000001,11.366761514903153,-9.6,1
-0.0005165,0.003165418951051884,-0.0008,-45.19,10.218949783288243,-47.95,1
-0.0013629999999999998,0.002242649859420726,-0.0015,-41.1555,13.763098639872284,-45.75,1
-0.0015195000000000002,0.009859335792096066,-0.0015,-2.752,12.048778415529625,3.4000000000000004,1
-0.0005499999999999999,0.019274173622861785,-0.0008,2.717,2.918096543499878,2.4,1
-0.0010704999999999998,0.010381157057828215,-0.0015,1.4415,0.8087012666575146,1.5,1
-0.0008915,0.0026467535343051496,-0.0008,2.008,0.5190211118758707,2.1,1
-0.0011705,0.002610989483012525,-0.0015,1.205,1.1238282563402393,1.5,1
-0.0016395,0.003702489960762587,-0.0023,-7.903499999999999,7.139889907375831,-6.05,1
-0.0002580000000000001,0.0039044795817138227,-0.0008,-36.286,12.455783262541823,-39.85,1
-0.0010565,0.002711163919609984,-0.0008,-43.3495,8.572018270873022,-47.349999999999994,1
-0.0012814999999999999,0.006014948526703655,-0.0015,-9.482000000000001,14.667493063363601,-6.6,1
-0.0012789999999999998,0.017588011534813805,-0.00265,2.3590000000000004,3.2328587781400198,1.5,1
-0.0007185,0.013024360930125952,-0.0015,0.023500000000000014,1.1250450577241546,0.3,1
-0.0012,0.0028715026794678355,-0.0015,1.92,0.6615043005895674,2.2,1
-0.0009665000000000001,0.0019610856776734378,-0.0008,1.4965000000000002,0.9166454847560305,1.8,1
-0.0006325,0.006502461362349201,-0.0008,-2.6634999999999995,2.521827874607173,-2.2,1
-0.0008704999999999999,0.008642856855410457,-0.0008,-14.575999999999999,7.594650590247039,-12.6,1
-0.000886,0.0030638439416021926,-0.0008,-38.4475,8.650906581010268,-41.25,1
4.3000000000000124e-05,0.021575603917900203,-0.003,5.455,0.5015303214328956,5.5,2
-0.0003625000000000002,0.016057567409340917,-0.0023,4.5105,0.445344144494093,4.5,2
-0.000965,0.01193043382514993,-0.0015,3.6289999999999996,0.3528192271336353,3.7,2
-0.00043000000000000015,0.01364769570257007,-0.0019,2.1365,0.799131280841954,2.1,2
-0.0015275,0.013233560722533635,-0.0046,1.5415,0.27349910199847066,1.5,2
-0.0007050000000000001,0.013683628298703723,-0.0038,1.785,0.13736574075681426,1.8,2
0.0008110000000000003,0.036635799267106195,-0.0046,1.739,0.1506401749586006,1.8,2
-0.00015800000000000015,0.06702002277876613,-0.0068,2.673,0.8417324799716331,2.6,2
-0.0022405,0.04391151918730077,-0.0068,4.254499999999999,0.328357799086767,4.3,2
-0.0016719999999999997,0.029531194919387074,-0.00715,4.047,0.204450483002609,4.0,2
-0.0015265,0.017526515382622034,-0.0038,3.5304999999999995,0.3258074623340644,3.6,2
-0.000954,0.014965403452714281,-0.0038,2.182,0.8281334585232193,2.4,2
-0.000572,0.016158925408323376,-0.0049499999999999995,0.3245,0.4640327379717381,0.2,2
-0.0016249999999999997,0.012325961285353782,-0.0046,0.02949999999999999,0.2806663821879144,0.1,2
-0.0005560000000000003,0.013976641101581316,-0.0038,-0.9025,0.43414995209549717,-0.95,2
-0.0007500000000000001,0.012304307371790472,-0.0019,-1.7009999999999998,0.24018209172611021,-1.7,2
-0.0011130000000000003,0.012866400128291771,-0.0015,-1.889,0.13442227022955816,-1.9,2
-0.0008424999999999999,0.011404616175062731,-0.0015,-1.8705,0.14241192288180962,-1.9,2
-0.0013155000000000003,0.012150790852521024,-0.003,-1.9895000000000003,0.16301108264571032,-2.0,2
-0.0008465000000000001,0.0136476878874543,-0.00265,-1.9489999999999998,0.1810050111746957,-1.9,2
-0.0014015,0.014064122634469132,-0.0049499999999999995,-1.6420000000000001,0.1833139931933798,-1.6,2
-0.0009640000000000001,0.012968713957387704,-0.0046,-1.507,0.14231043990703102,-1.5,2
-0.0007859999999999998,0.012597682805194833,-0.003,-1.6440000000000001,0.2806381815518401,-1.6,2
-0.001226,0.013443203584453568,-0.0038,-2.386,0.28426755038344587,-2.4,2
-0.0007325000000000001,0.011379099846498535,-0.0015,-1.72,0.5723968823768819,-1.6,2
-0.0009759999999999999,0.008306213935948718,-0.0023,-0.8165,0.25554700420232623,-0.8,2
-0.000983,0.010196423207731021,-0.0015,-1.8644999999999998,1.0808473086068227,-1.6,2
-0.0008784999999999999,0.0034238430536871,-0.0015,-5.6475,2.0723093592420048,-5.3,2
-0.0010639999999999998,0.002934460648310418,-0.00115,-17.446000000000005,7.3503279248626106,-16.7,2
-0.0009775,0.0029470952823102054,-0.0008,-38.255500000000005,8.152329244489136,-38.5,2
-0.0009705,0.0028112444266073086,-0.0008,-58.6475,7.500605921922566,-59.1,2
-0.0010945,0.003982691162326345,-0.0008,-76.1805,6.556332605670712,-75.69999999999999,2
-0.0011735,0.005648484276610458,-0.0008,-92.8505,5.622049175760863,-93.9,2
-0.0008709999999999999,0.004768653824349427,-0.0008,-100.698,0.9277930803794561,-101.0,2
-0.0011584999999999998,0.005440064268575433,-0.0015,-100.478,0.4629119108274586,-100.4,2
-0.0010895,0.004993688453624163,-0.0008,-101.0975,0.3482097069296035,-101.2,2
-0.0009915,0.0031958480838228786,-0.0008,-100.58099999999999,0.5781090297264487,-100.7,2
-0.0008700000000000001,0.0033137751172398824,-0.0008,-95.73,3.713793385008469,-96.75,2
-0.001251,0.0036641272003989592,-0.0015,-81.30000000000001,7.081918372813682,-81.3,2
-0.0008535000000000001,0.0034477124817455284,-0.0008,-64.9075,5.460326876478178,-64.7,2
-0.0009590000000000001,0.00413159404428045,-0.0008,-49.1,7.348298268115275,-49.9,2
-0.0006555000000000002,0.011113750356424448,-0.0015,-26.1835,9.95517984663735,-26.35,2
7.349999999999989e-05,0.023445950840262804,0.0007,-6.4479999999999995,4.462731885224228,-4.9,2
-0.0034949999999999994,0.04758691466397228,-0.0098,0.7885,3.0622220312779773,1.3,2
0.003273500000000001,0.06900604261466295,-0.01125,4.974,0.48549203141021063,5.1,2
-0.002862,0.05115387228007507,-0.0165,5.769499999999999,0.2802004845780762,5.8,2
-0.0006755,0.027060121964872386,-0.0049499999999999995,5.653,0.2596692910290271,5.7,2
-0.0008985000000000001,0.012449570546164222,-0.0015,3.5240000000000005,1.8007882137982727,4.1,2
-0.0009040000000000002,0.007558447901081723,-0.0015,-2.8240000000000003,2.775869459517397,-2.75,2
-0.001036,0.0035047138393137587,-0.0008,-12.4725,5.2130869094643115,-11.6,2
-0.0007875,0.0032175701294126324,-0.0008,-30.221000000000004,8.352669900837805,-29.85,2
-0.0010350000000000001,0.0031375621878158943,-0.0008,-52.8865,8.919002792017736,-52.9,2
-0.00122,0.0037064794549206324,-0.0015,-74.00200000000001,7.200313784340571,-74.35,2
-0.001399,0.005147151136708598,-0.0015,-89.977,4.986632482706935,-90.7,2
-0.0011424999999999999,0.007639440358755011,-0.0008,-98.4725,1.9076660343184968,-98.8,2
-0.000679,0.007563949076252473,-0.0008,-100.62299999999999,0.5066105716986012,-100.6,2
-0.0011380000000000001,0.008034082924778104,-0.0008,-99.958,0.3158079691312967,-99.9,2
-0.0009205000000000001,0.006255251442029732,-0.0015,-100.3355,0.20047619189716198,-100.4,2
-0.0013069999999999998,0.0060081645455188825,-0.0015,-99.99900000000001,0.16953676170034296,-100.0,2
-0.0016695,0.0036022215018990294,-0.0015,-98.34049999999999,1.8280917227353974,-99.1,2
-0.001106,0.004660974944921498,-0.0015,-86.566,7.496306896427541,-87.3,2
-0.000906,0.00406776320444507,-0.0008,-64.657,8.88705517867104,-64.5,2
-0.0011475,0.004949117351893575,-0.0015,-44.522,6.764919562228147,-44.55,2
-0.0015905000000000003,0.007881679013405187,-0.0019,-25.5875,7.9356452844366725,-25.9,2
-0.0006290000000000001,0.013892681237248586,-0.0015,-6.2285,6.169281800963423,-4.6,2
-0.0007605000000000001,0.01581873737091713,-0.0023,2.9575,2.007209055119763,2.8499999999999996,2
0.000325,0.018852198864059606,-0.00265,5.424000000000001,0.38335204964868697,5.5,2
-0.0013160000000000003,0.016286343016288854,-0.00265,4.948499999999999,0.2806986080170574,4.9,2
-0.0002969999999999999,0.01708503094559856,0.0,4.9735000000000005,0.3239947732068012,5.0,2
-0.0011395000000000003,0.016911973985030596,-0.0042,4.6675,0.1445622399038909,4.7,2
-0.0008440000000000001,0.0075642948636287,-0.0015,4.4094999999999995,0.31216499631544714,4.5,2
-0.000665,0.003935366635113409,-0.0008,1.3515000000000001,2.7614353834345686,2.2,2
-0.0011259999999999998,0.004375402235637094,-0.0008,-13.626999999999999,8.692922726427412,-13.55,2
-0.001392,0.004589373349237722,-0.0015,-38.104,10.02197003672858,-38.150000000000006,2
-0.000901,0.005063843555816965,-0.0008,-62.104,8.060361726112474,-63.0,2
-0.0004854999999999998,0.004221236065372083,0.0,-79.3115,5.576648887465515,-79.45,2
-0.0010754999999999999,0.0062758570457182574,-0.0015,-92.546,4.7604615290798495,-92.55,2
-0.0011145,0.006940909223889288,-0.0015,-101.38949999999998,1.7931303164182726,-102.1,2
-0.0008085000000000001,0.00660058454469438,-0.0015,-100.6925,1.2163020609690627,-100.25,2
-0.000798,0.005821886965511784,-0.0008,-100.26299999999999,0.532492951801799,-100.4,2
-0.0009765000000000002,0.005385379215661829,-0.0015,-100.76099999999998,0.22299694659558608,-100.8,2
-0.0011315,0.004830177098618651,-0.0015,-100.47049999999999,0.15876327942717752,-100.5,2
-0.0007890000000000001,0.0042176559971805125,-0.0008,-99.38799999999999,1.007437667186577,-99.8,2
-0.0009760000000000002,0.004198483095298527,-0.0008,-93.4585,3.9005897956294824,-94.2,2
-0.001179,0.0033870369197098187,-0.0008,-78.19900000000001,7.822612436177134,-78.69999999999999,2
-0.0012365,0.003363791494144725,-0.0015,-57.14549999999999,8.167756176256358,-57.35,2
-0.0013765,0.0038617695516889347,-0.0015,-35.5875,8.39488320766595,-35.5,2
-0.0010385,0.008307825683531143,-0.0015,-14.386999999999999,7.98926610298603,-14.45,2
-0.0015135,0.023596426093200198,-0.0053,0.8759999999999999,3.4906370097259227,1.8,2
-0.0016550000000000004,0.031358931549714794,-0.0038,5.32,0.5921598317444857,5.4,2
-0.0011014999999999996,0.021432405084088026,-0.0015,5.1114999999999995,0.16899867681085307,5.1,2
-0.0013220000000000005,0.023360986590303966,-0.0049499999999999995,4.941,0.16750909373049583,4.9,2
4.350000000000083e-05,0.054982041451375765,-0.0023,5.001,0.1886183565353876,5.0,2
-0.0021949999999999995,0.04926494748044757,-0.0083,5.444,0.22069784250971325,5.45,2
-0.0024590000000000002,0.015693746762235793,-0.0015,5.1075,0.38618576778045693,5.2,2
-0.00059,0.027433752090606275,-0.0015,2.8405,1.362052010164061,2.7,2
-0.0009585000000000002,0.02498112307926742,-0.0019,2.8905000000000003,1.1537832678392106,3.1,2
-0.0006865000000000002,0.019330806193494685,-0.0019,3.92,0.28742488640796765,4.0,2
-0.0009685000000000001,0.015251346682445486,-0.0042,3.761999999999999,0.16701939224812995,3.8,2
-0.001019,0.008802885490839022,-0.0019,3.7430000000000003,0.18417546800558254,3.8,2
-0.0013015,0.0037793737682851668,-0.0015,-1.3,5.358429230576388,0.75,2
-0.0009865000000000002,0.004561865939971421,-0.0008,-25.216499999999996,12.304290126928825,-24.85,2
-0.001038,0.004897271930555729,-0.00115,-56.685,11.33320708866528,-57.65,2
-0.0008625,0.005212455487680952,-0.00115,-79.90749999999998,7.112999900740877,-80.3,2
-0.0012990000000000002,0.005898624232750884,-0.0008,-96.542,5.318738657287326,-97.65,2
-0.0009589999999999999,0.005785367002773804,-0.0008,-102.1795,1.3575138930593833,-102.55,2
-0.0012035,0.004433635457142837,-0.0015,-96.766,2.673139046478698,-96.85,2
-0.000853,0.0029594225635329176,-0.0008,-93.41199999999999,0.45096880637313286,-93.3,2
-0.0009404999999999999,0.0034647702542265155,-0.0008,-94.31849999999999,0.25580251097891027,-94.4,2
-0.001162,0.0037134897374505754,-0.0015,-95.133,0.6299166412108604,-95.15,2
-0.000948,0.003510643686772755,-0.0008,-95.494,0.4028341803824779,-95.5,2
-0.0009565000000000001,0.003265728504226368,-0.0008,-93.866,1.1410759270779407,-94.25,2
-0.0009325,0.0032069951417481083,-0.00115,-88.3575,3.4386136843722,-88.95,2
-0.0009289999999999999,0.0026310780792854634,-0.0015,-75.865,6.029756614003638,-76.3,2
-0.00114,0.0026560445900476897,-0.0008,-57.460499999999996,8.3935420108222,-58.25,2
-0.0012345,0.00334672415397715,-0.0015,-33.338,10.014660409398704,-33.55,2
-0.0018085000000000002,0.01384902361270012,-0.0023,-9.888499999999999,7.525936242864292,-9.15,2
-0.0005560000000000001,0.013687413577891966,-0.0015,2.5565,2.677536884684172,2.4,2
-0.0006230000000000001,0.009553876373956504,-0.0015,6.430499999999999,0.4084776861720877,6.5,2
-0.0012129999999999999,0.010182817876182288,-0.0015,6.2105,0.19475470978881232,6.2,2
-0.0010580000000000001,0.006475181532543843,-0.0015,6.4175,0.14714621996589394,6.4,2
-0.001074,0.0024764466357461625,-0.0008,6.394,0.1509234555900314,6.4,2
-0.000994,0.0021459940475829164,-0.0008,6.1235,0.2002454523978762,6.1,2
-0.0009720000000000001,0.0017194763723223639,-0.0008,5.702000000000001,0.2333845361384141,5.7,2
-0.0011799999999999998,0.00312422854799397,-0.0015,4.751499999999999,0.7381885679208563,5.0,2
-0.0010955000000000001,0.003917071225408674,-0.0015,-2.7355,6.207087029918699,-0.9,2
-0.0011095,0.0035999943816259895,-0.0008,-24.7285,9.432065364233642,-25.4,2
-0.001008,0.0030867907909242344,-0.0015,-45.9185,7.230540180825542,-46.05,2
-0.001175,0.0036126765923348327,-0.0008,-64.653,7.602339695397801,-64.19999999999999,2
-0.0009775,0.0037964203914931122,-0.0008,-86.181,8.52268854883848,-86.7,2
-0.0007025000000000001,0.004795490317677084,-0.0008,-102.39,3.9872283543520224,-103.15,2
-0.0011255000000000002,0.005940509068249096,-0.0015,-105.4935,1.2524178625812403,-105.8,2
-0.0009145000000000001,0.004605419546141254,-0.0008,-104.854,0.9244767635977452,-104.7,2
-0.001113,0.004209588361212328,-0.0008,-106.50099999999999,0.30931761497637594,-106.6,2
-0.0007690000000000002,0.004013925383577107,-0.0008,-105.76700000000001,0.6505590946857872,-105.8,2
-0.001092,0.0045805505363526325,-0.0008,-104.33150000000002,0.42962850611468034,-104.2,2
-0.0011865,0.004298085088401077,-0.0015,-103.553,0.537246843503311,-103.8,2
-0.0010425,0.0028417815471652712,-0.0008,-98.3695,4.108028632596315,-99.35,2
-0.0010315,0.002819361941786468,-0.0015,-81.06900000000002,8.98176483200754,-81.35,2
-0.000958,0.0028470624903785655,-0.0015,-57.2725,8.91316533739043,-56.7,2
-0.0010515,0.002463563164876573,-0.0008,-35.935,7.8652326362359135,-35.95,2
-0.0011819999999999999,0.00793696751072673,-0.0015,-16.6355,6.800775136873117,-16.299999999999997,2
-0.0015379999999999999,0.025961905916052654,-0.0053,-4.252999999999999,2.5246107217712606,-2.8,2
-0.000689,0.027114693656029046,-0.0053,0.6615000000000001,2.2268276892900665,0.55,2
-0.00013649999999999998,0.0021635207092367955,0.0,78.84599999999999,5.604904887147491,79.2,0
0.00018950000000000003,0.0022978118824734522,0.0,79.4195,0.19066071314690916,79.4,0
-0.0002855,0.002192022940770539,0.0,79.7185,0.17879482078544343,79.7,0
1.2500000000000028e-05,0.0022386270357129916,0.0007,79.665,0.17385663822030648,79.6,0
-0.000255,0.002668346937128758,-0.0008,79.6055,0.15210334360453284,79.6,0
-4.3500000000000014e-05,0.0025468786197064,0.0,79.66850000000001,0.14091499272923325,79.6,0
-3.9000000000000006e-05,0.001775483230987435,0.0,79.5695,0.15110896597485465,79.6,0
-0.00010400000000000005,0.0022377941400104997,-0.0008,79.4765,0.156910338318915,79.5,0
7.999999999999991e-06,0.002459242846260696,0.0,79.48,0.23660071744922356,79.5,0
-0.0002865,0.0023931157021379245,-0.0008,80.27850000000001,0.38172808602235614,80.4,0
-0.00026450000000000003,0.0029571971229731377,0.00035,80.58,0.1653380882225429,80.55,0
-5.799999999999998e-05,0.002536237073394815,0.0,80.662,0.1676200537288437,80.7,0
-5.799999999999996e-05,0.002422037847904819,0.0,80.60799999999999,0.1797150172834366,80.6,0
-6.25e-05,0.0022906284384893324,-0.0008,80.28200000000001,0.19014937265107748,80.3,0
-5.5499999999999994e-05,0.0025869152289957308,0.0,80.4125,0.2538027366789586,80.4,0
0.00011399999999999994,0.006237864922709523,0.0007,80.6555,0.2761358452376757,80.7,0
8.499999999999949e-06,0.003929220229007298,0.0,80.7465,0.42649412209420273,80.8,0
-0.00010550000000000006,0.0035716808747922584,-0.0008,74.53,5.466885234834757,75.5,0
-0.0001845,0.003872777008658511,-0.0008,58.630500000000005,6.3446823973795645,58.6,0
-0.0011209999999999998,0.01333016223178203,-0.0008,42.042,6.6869960055236675,42.4,0
-0.0006795000000000001,0.022119425277866415,-0.0022500000000000003,26.140500000000003,5.188439967512625,25.7,0
0.0009280000000000002,0.03321464404286868,-0.0015,15.213999999999999,3.561223887638832,15.2,0
-0.0018765000000000003,0.06102135961609659,-0.012,7.987,1.8886146580584304,7.5,0
0.0021975,0.09441274477329921,-0.0083,4.7535,0.8064362635919724,4.6,0
-0.0015499999999999997,0.062416919655622904,-0.0049499999999999995,3.78,0.2047182154540562,3.8,0
0.0006889999999999997,0.025355242467841148,-0.0015,4.534,0.6453108790755561,4.45,0
0.000206,0.009152985837897042,-0.0008,9.0785,3.1926561066101957,8.6,0
0.00031149999999999993,0.0057234084926614665,0.0,20.0065,5.16678683331377,19.3,0
0.00016349999999999996,0.00612906558741823,-0.0008,33.615500000000004,5.191286645445025,33.349999999999994,0
0.00011400000000000002,0.004976487833379972,-0.0008,46.17799999999999,4.550831389060497,46.349999999999994,0
-4.900000000000002e-05,0.004570299463484825,-0.0008,58.28900000000001,4.570297264448686,58.9,0
-7.750000000000007e-05,0.00548798997079969,-0.0008,68.414,3.285586613830919,68.65,0
-0.0003755000000000001,0.005163113250957322,0.0,75.18299999999999,1.89307412645179,75.45,0
-0.00028450000000000003,0.004990212505923107,-0.0008,76.9925,0.4487769532505475,76.9,0
0.00034250000000000003,0.004433228090966296,0.0,76.7285,0.2074922048544886,76.7,0
-2.8999999999999997e-05,0.0044097948310846975,0.0007,76.84949999999999,0.18458087794382336,76.9,0
4.1500000000000006e-05,0.004312844873690986,-0.0008,76.9385,0.14516582096998276,76.9,0
9.24999999999999e-05,0.004796333791469895,0.0,76.8655,0.15838300375796935,76.9,0
-7.949999999999998e-05,0.006573017002302883,0.0,76.796,0.15845992470872117,76.8,0
0.00023199999999999997,0.004746485184643496,0.0007,76.4255,0.6817062173943926,76.7,0
-5.000000000000005e-06,0.005534775850799467,0.0007,70.34649999999999,4.4925720660713075,71.35,0
6.599999999999988e-05,0.010806356030284504,0.0007,56.37699999999999,5.752829410920835,56.349999999999994,0
-0.000124,0.0076015816920628745,-0.0008,42.7615,4.860244606827003,42.7,0
3.4999999999999614e-06,0.012947157300380806,-0.0008,30.1735,4.842187693418283,30.25,0
0.00035150000000000003,0.018661779330732226,-0.0015,18.61,4.002599657735021,18.299999999999997,0
0.0010265000000000003,0.023322173281727292,-0.0019,10.585,2.1565548087670026,10.2,0
-0.0003694999999999997,0.024094794361575987,-0.003,6.883500000000001,0.882992712684123,6.7,0
0.0016625000000000001,0.053395858757136386,-0.0046,5.4725,0.37456004342515387,5.4,0
1.3999999999999707e-05,0.040600913473398254,-0.0008,5.3445,0.307150544988011,5.3,0
-0.001044,0.020173692107949188,-0.00265,6.335,0.5847947713712184,6.2,0
0.00028799999999999984,0.012210657508255628,0.0,8.5145,1.2017323132727264,8.4,0
0.00018850000000000003,0.006674470806945208,-0.0008,12.651499999999999,1.9223095798031633,12.649999999999999,0
-0.00025050000000000007,0.005090329757017305,-0.0008,18.439,2.4974115242802992,18.35,0
4.49999999999999e-06,0.003684686461777724,0.0,24.7925,2.6696495827116267,24.7,0
-9.500000000000002e-05,0.002968710360750968,0.0,31.756500000000003,2.791436608936076,31.65,0
-0.00015150000000000005,0.002680864210394264,0.0,40.0345,3.4677784222654213,40.0,0
-4.050000000000007e-05,0.0032750019755258914,-0.0008,49.28799999999999,3.910423642692263,48.8,0
-0.000115,0.0034961105452665005,-0.0008,60.9075,4.8114074822029975,60.95,0
4.149999999999994e-05,0.003982313631458034,0.0,70.5205,2.5096056167770247,70.8,0
3.499999999999996e-06,0.004474218468573324,0.0,74.995,1.1058433194789299,75.3,0
1.4499999999999998e-05,0.003929867560774299,0.0,75.9385,0.2719143931202062,75.9,0
-7.900000000000002e-05,0.0033043383999382583,0.0,76.2955,0.19575841433746807,76.3,0
-0.00037949999999999995,0.004016414780428214,-0.0008,76.3795,0.15860494203583667,76.4,0
-0.00023349999999999996,0.005314938438309055,-0.0008,76.23649999999999,0.17398015828647603,76.2,0
0.000127,0.003971426967829582,0.0,75.77850000000001,0.6228381707431502,76.0,0
4.0999999999999994e-05,0.0036825841647752278,0.0,69.88900000000001,4.437843086036437,70.9,0
-0.00022400000000000002,0.0073093884695639875,0.0,56.091,5.648446133105367,55.55,0
0.0007465000000000001,0.014476509745864523,0.0007,41.369,5.894613758066251,41.55,0
0.00038799999999999994,0.019204151979880072,-0.0023,27.039499999999997,5.008464167445236,26.75,0
0.00015749999999999993,0.023119604762449106,-0.0046,15.3855,4.016828888763875,14.9,0
0.0012485000000000003,0.042459626673302026,-0.00265,8.176499999999999,1.659568797297907,7.9,0
-0.0007614999999999999,0.07397572715961612,-0.0068,5.5535000000000005,0.5082117134901982,5.4,0
1.5000000000001123e-06,0.04830684219408075,-0.003,4.973,0.22633412398132077,5.0,0
3.500000000000003e-05,0.030095921608873137,-0.0068,5.6575,0.6359764778684902,5.6,0
-4.700000000000003e-05,0.010497474738211903,-0.0015,8.8995,2.027115124664412,8.55,0
-0.00012600000000000008,0.007690843214286303,-0.0008,15.2255,2.6303217889771284,15.6,0
4.899999999999991e-05,0.006946254476786856,0.0,21.5405,2.423505030563344,21.65,0
0.00022849999999999994,0.0042247461640616685,0.0,28.284499999999998,2.713248669346129,28.35,0
5.549999999999997e-05,0.0030202615198424787,0.0,35.408500000000004,3.1723962932152774,35.150000000000006,0
-7.450000000000001e-05,0.0036901471079608694,0.0,45.828,4.777198354747582,45.650000000000006,0
-0.00019300000000000006,0.003515614987981277,0.0,59.21,5.488425463678241,59.25,0
-2.4999999999999998e-05,0.0036156381450554377,0.0,72.29799999999999,4.3349225793368245,72.80000000000001,0
-0.00010299999999999993,0.003579547008200843,0.0,79.83200000000001,1.5032213316272816,80.5,0
-0.0001125,0.0031040893355403086,0.0,80.1475,0.596803672169984,80.1,0
-1.4500000000000017e-05,0.0031190514841541194,0.0,79.9795,0.20964135443045878,80.0,0
0.00014500000000000003,0.0028206302086358887,0.0007,79.81550000000001,0.18020019576228039,79.8,0
-2.2499999999999998e-05,0.004087884261900459,0.0,79.6485,0.19949118694404042,79.6,0
-9.000000000000003e-05,0.004191112875559232,-0.0008,79.4145,0.211811402789743,79.4,0
-0.00014650000000000004,0.003205567980935986,-0.0004,76.989,2.5847210515978047,77.75,0
2.3999999999999994e-05,0.005454150970964257,-0.0004,66.15299999999999,5.630122770602814,66.45,0
0.00012600000000000008,0.008492090555926162,-0.0008,50.653999999999996,5.956507694916376,50.4,0
-1.300000000000006e-05,0.016090317666629994,-0.0008,36.1875,5.3473793656708155,36.1,0
-0.0008104999999999998,0.021028089367850597,-0.0046,23.5425,4.421526118443766,23.35,0
0.0006819999999999999,0.02523877681814993,-0.0049499999999999995,12.865,3.5666341832300272,12.2,0
9.699999999999973e-05,0.06799416166926046,-0.00265,6.6754999999999995,1.4048550954443593,6.4,0
-0.0013840000000000002,0.07990730838708276,-0.0098,4.639500000000001,0.36942131848712156,4.5,0
0.00013200000000000004,0.0754055039511749,-0.0091,4.4255,0.22882647964985303,4.5,0
-0.0016265000000000003,0.03918305509763018,-0.0063999999999999994,4.913,0.34251655133686365,4.9,0
0.00014750000000000003,0.014403823953116127,-0.0015,6.755999999999999,1.2166615497471611,6.7,0
9.3e-05,0.0082891435325076,-0.0008,13.014,3.8116067122203487,12.6,0
-0.0001065,0.006194381288533884,-0.0008,23.903000000000002,4.64195321478375,23.05,0
-1.8999999999999987e-05,0.002708026224051524,0.0,37.0475,5.197002784268882,37.150000000000006,0
-0.00011700000000000004,0.0024820989253808738,0.0,50.613,5.298926695152805,50.849999999999994,0
-8.550000000000002e-05,0.002590830322270057,-0.0008,63.735,4.651857034491358,64.05,0
-9.949999999999999e-05,0.0036581635492093337,-0.0008,73.854,3.166245339157831,74.25,0
-0.00011599999999999996,0.0045753593922050724,0.0,78.45649999999999,0.597025920499892,78.7,0
3.7000000000000005e-05,0.0032539471199293435,0.0,78.509,0.28252095577542796,78.5,0
-0.000201,0.0024007115779289294,-0.0008,78.66199999999999,0.17666935303415737,78.7,0
7.250000000000001e-05,0.0025884540214393473,0.0,78.60700000000001,0.14336585661942358,78.6,0
0.00023450000000000006,0.0026344184467855182,0.0007,78.6485,0.145615139474648,78.7,0
7.499999999999993e-05,0.004235869207104782,0.0,78.6475,0.14968560015737195,78.7,0
3.999999999999976e-06,0.0033023189659334594,0.0007,78.23949999999999,0.7440820117440049,78.55,0
6.250000000000001e-05,0.002501445561969616,0.0,72.967,3.5069938736973514,73.45,0
-0.00026350000000000006,0.003338479440534922,0.0007,61.6695,5.055671947844431,61.75,0
-5.449999999999996e-05,0.006220946925771536,-0.0008,48.754000000000005,4.783533733013115,48.5,0
-3.0000000000000096e-05,0.01410647949770231,-0.0008,36.688,4.419015102074421,36.349999999999994,0
-0.00024199999999999986,0.028719683793278942,0.0007,26.448,3.767461323506933,26.7,0
0.0008910000000000001,0.037882814801522245,-0.003,16.9215,3.4616328894477726,16.7,0
0.0024904999999999992,0.056949350323434816,-0.00115,9.6055,2.055173579581797,9.4,0
0.0014640000000000002,0.08364731718568033,-0.0083,5.9,0.8487649910606896,5.6,0
0.0018330000000000004,0.07155644580104852,-0.0063999999999999994,4.954,0.19253401448489127,4.9,0
-4.500000000000129e-06,0.0317424802910095,-0.0083,5.435499999999999,0.44551336770519046,5.3,0
-0.0008315,0.012058177973066688,-0.0015,7.6535,1.4130361302980325,7.6,0
-0.000566,0.007277399723367432,-0.0008,12.956000000000001,2.800657496385501,12.7,0
-0.00018650000000000003,0.006495662855294156,-0.0008,21.0375,3.305643681759086,21.05,0
-0.00013050000000000003,0.002440738777275122,-0.0008,30.532000000000004,4.17498846024945,30.55,0
-0.00013950000000000003,0.0024081498455021362,-0.0008,42.201499999999996,4.886947825097598,41.849999999999994,0
7.049999999999999e-05,0.0034664334052111577,0.0,56.35850000000001,5.947224152966507,56.150000000000006,0
6.899999999999994e-05,0.0042517201957696605,-0.0008,70.557,4.810953895739873,70.95,0
0.00010149999999999996,0.002671917563723976,0.0,77.877,1.1151181292630183,78.0,0
0.00018600000000000002,0.0019393062013806806,0.0,78.0695,0.5627639525872816,78.3,0
-0.00014350000000000002,0.002670583801193288,0.0,5.812,1.7372524949343926,5.5,1
0.00010549999999999996,0.0019223676121337733,0.0,4.6625,0.691181895061135,4.5,1
2.7499999999999977e-05,0.0022293144607309504,0.0,14.360500000000002,8.380876158008745,12.0,1
0.0001385,0.004184389240568202,0.0,45.8525,13.197753492022075,49.7,1
3.499999999999996e-05,0.004000210421601025,0.0,59.078500000000005,6.505844898181633,60.6,1
-0.000252,0.01474818772615911,-0.0008,28.8225,16.151180978025252,28.799999999999997,1
-0.00036350000000000005,0.016110978739035327,0.0007,10.156500000000001,3.323973790328974,9.1,1
-7.900000000000002e-05,0.010402080338897815,0.0,17.098000000000003,1.9246081634749896,17.5,1
0.0005035,0.009303419037047322,-0.0008,15.2175,2.0438764406202776,15.7,1
0.00013199999999999996,0.0019678766967133224,0.0,8.359000000000002,2.7578702364698064,7.6,1
0.00023349999999999998,0.0020733115671001693,0.0,12.4915,7.511597582485767,10.0,1
0.00023050000000000007,0.004237760353544117,-0.0008,43.373999999999995,13.634932376235778,48.2,1
-0.000329,0.0038686549933131045,0.0,59.4155,5.236776574809389,60.150000000000006,1
0.00028800000000000006,0.00345828783849311,0.0007,33.676500000000004,15.171621145775916,34.6,1
-0.00011650000000000008,0.00904831685672526,-0.0008,8.151,3.7414423628827795,7.5,1
-6.2e-05,0.007896265639862706,0.0,10.3775,1.7770009600617283,10.7,1
0.00013500000000000006,0.004452764372023721,-0.0008,4.781,4.0140881302716735,3.9,1
-9.3e-05,0.002420671238774723,0.0,2.9635000000000002,1.5590609691502253,3.3,1
-6.350000000000001e-05,0.0016505877588752266,0.0,8.451500000000001,3.6935632929455773,7.05,1
-7.15e-05,0.002136553781279915,-0.0008,30.952999999999996,14.271871727740033,28.55,1
-0.0006225,0.0031942227607394767,-0.0008,59.085,6.1222860872939755,60.9,1
6.0999999999999924e-05,0.0037705922385144934,0.0007,47.31,13.615620647922762,49.3,1
-0.00020899999999999998,0.007653784756937424,-0.0008,14.64,8.697206852500168,9.649999999999999,1
-0.00026250000000000004,0.011628454260668629,-0.0008,10.485999999999999,2.593576138448542,9.6,1
-0.0002680000000000001,0.00407249334070054,-0.0008,6.781000000000001,3.8973175931800266,7.2,1
0.00025199999999999995,0.0023991614950638427,0.0,1.1755,0.6648759660652931,1.15,1
1.5999999999999986e-05,0.001945370486991693,0.0,2.96,1.4076246073353078,2.7,1
0.00030849999999999996,0.001959150095188571,0.0,14.218499999999999,9.055923836509631,11.6,1
4.799999999999999e-05,0.0029039733653276967,0.0,46.863,12.943368376300782,50.349999999999994,1
0.00011449999999999998,0.002462225114111789,0.0,58.94649999999999,6.37403556602761,60.45,1
0.0006855,0.005023726594319436,0.0,32.6485,11.887221201334107,29.3,1
0.00035549999999999997,0.008445430494128513,-0.0008,16.6205,2.2479537875934605,15.9,1
-2.999999999999947e-06,0.008523587785886796,-0.0015,17.023000000000003,1.1515648082230059,16.55,1
-0.00023950000000000005,0.004379748937298667,-0.0008,15.544,0.8661495687102109,16.0,1
7.999999999999986e-06,0.0028111293533393342,0.0,12.407,1.3102422193498557,12.0,1
-0.00020000000000000004,0.0019960262029880957,-0.0008,9.835,0.912379956996891,9.75,1
-0.0001285,0.0024394244625613477,-0.0004,18.006500000000003,8.989810409904656,15.149999999999999,1
9.999999999999957e-06,0.00199285154651122,0.0,40.26349999999999,6.539052975706457,40.4,1
0.00018099999999999998,0.0020998537876833817,0.0,45.11600000000001,4.361646915913239,47.0,1
0.000452,0.006078902969001287,-0.0008,24.3655,10.419809108582387,23.4,1
0.0003734999999999999,0.009036889654251376,-0.0008,10.970500000000001,1.9944344042772697,11.4,1
0.000228,0.007816958500657722,0.0,14.204500000000001,1.3915862573185291,14.3,1
-0.00033350000000000003,0.003268723069107041,-0.0008,9.516,3.285133866772108,8.8,1
-0.00019100000000000003,0.002583348106079769,-0.0008,4.216,1.0349393689909747,4.1,1
0.0001075,0.0026808447161221034,0.0,3.77,1.6446043956193392,3.1,1
0.0001535,0.002853717975099682,0.0,17.6225,10.609962311490852,15.05,1
0.00012749999999999995,0.0032012393564189215,-0.0004,49.3185,10.9616374336196,51.55,1
0.00013849999999999995,0.0035752594522291356,0.0007,54.9375,7.54894539874053,58.05,1
-0.000136,0.0038824439280266956,0.0007,24.788,14.10351380002649,22.95,1
6.5e-05,0.009131092995719752,-0.0008,8.9505,2.8293152659913776,8.6,1
0.00011750000000000004,0.006933832556357119,0.0007,14.845,1.7873578939893477,15.2,1
-0.0001175,0.0031198575779244576,0.0007,10.273499999999999,3.307771836540888,9.55,1
-0.00021850000000000003,0.0026165318543300065,0.0,4.109,1.5737542732468786,3.3,1
8.000000000000003e-06,0.002657186330685128,0.00035,6.763,4.22537572293873,4.8,1
8.099999999999999e-05,0.003124443910321278,0.0,30.3505,14.32295833363819,28.25,1
-0.00021250000000000002,0.0034878242991453223,0.0,58.703,6.346992402927079,60.4,1
7.050000000000002e-05,0.003621110597565198,0.0,46.455499999999994,13.78342788173008,48.3,1
0.00015099999999999988,0.014034261701548026,0.0007,14.119499999999999,8.559133342099493,10.25,1
-0.0005344999999999999,0.015523127817427162,-0.0015,12.907,3.8717571614950157,12.3,1
9.049999999999988e-05,0.007394277275850624,-0.0008,12.376,2.8779920415030276,13.3,1
1.6000000000000003e-05,0.002584305938918542,-0.0004,6.314,1.3997142565538132,6.0,1
-7.5e-05,0.0019918615822426206,-0.0004,4.998999999999999,1.024768143895837,4.6,1
3.7999999999999995e-05,0.0021240087253414537,0.0,17.155,9.906577430268719,14.6,1
9.249999999999994e-05,0.0038001843052368972,0.0,48.827,11.965300375056474,50.6,1
0.000304,0.0032072756484947075,0.0007,58.4295,7.303119712676796,60.849999999999994,1
-5.600000000000008e-05,0.004192367316754697,0.0,26.7,15.701243429299817,25.35,1
-7.75000000000002e-05,0.009278669749029644,-0.0008,7.014000000000001,1.578881991064735,6.5,1
-0.0002355000000000001,0.010146028742627893,-0.0008,9.987,1.6073108726086638,10.55,1
-7.300000000000001e-05,0.0031182669777816653,0.0007,6.7125,2.5976591220891287,5.45,1
-0.00016400000000000006,0.0022149115480824847,0.0,5.4510000000000005,0.873161528742753,5.1,1
6.4e-05,0.0016682684430240691,0.0,12.042,5.571096984260838,9.95,1
-0.00045250000000000005,0.0023382538152481682,-0.0008,38.9645,13.461607038921905,42.349999999999994,1
-0.00027350000000000003,0.0034021642166103543,-0.0008,57.7875,4.933231966793266,58.45,1
0.000251,0.0023706537062538,0.0007,34.674499999999995,14.864155385578863,36.45,1
-0.00020750000000000006,0.007526942811690033,-0.0008,9.101,3.7489159572163486,7.7,1
-9.950000000000011e-05,0.008368885287466538,-0.0004,11.434499999999998,3.1895494790639285,10.3,1
-6.55e-05,0.009419618133390253,-0.0008,11.932,1.3707922369140852,11.9,1
