File Name: 12standing.log
Channel 3: 'Vasto Medial', 21791 values, engineering units: mV, no filters.
Channel 5: 'Flexo', 21791 values, engineering units: deg, no filters.
Digitals combined (event=16, d=8, c=4, b=2, a=1): 21791 values, .
-0.005300  5.600000
0.004500  6.100000
0.004500  5.800000
0.004500  5.800000
0.001500  6.000000
-0.008300  5.800000
-0.005300  5.700000
0.017200  6.000000
0.027700  5.700000
0.024000  5.800000
0.016500  5.900000
0.014200  5.800000
0.006700  5.900000
-0.003000  5.700000
-0.013500  5.800000
-0.016500  6.000000
-0.009100  5.800000
-0.003000  5.800000
0.011200  6.100000
0.019500  5.600000
0.017200  5.900000
0.015700  5.900000
0.002200  5.700000
-0.012800  5.800000
-0.014300  5.800000
-0.003000  5.800000
0.002200  5.800000
-0.009100  5.700000
-0.021800  5.900000
0.002200  5.900000
0.045000  5.900000
0.051700  5.800000
0.045000  5.800000
0.031500  5.700000
0.010500  5.900000
0.004500  5.600000
0.006700  6.000000
0.007500  5.600000
-0.004600  5.800000
-0.012800  5.700000
-0.009100  5.800000
-0.007500  5.800000
-0.009100  5.700000
-0.015000  5.900000
-0.028500  5.800000
-0.033800  5.800000
-0.028500  5.800000
-0.024800  5.800000
-0.019500  5.400000
-0.016500  5.900000
-0.012800  5.600000
-0.012800  5.700000
-0.017300  5.700000
-0.021800  5.700000
-0.021800  5.800000
-0.016500  5.700000
-0.015800  5.900000
-0.015000  5.600000
-0.016500  5.900000
-0.014300  5.700000
0.000000  5.800000
0.009700  5.800000
0.012000  5.700000
0.015700  5.800000
0.019500  5.600000
0.019500  5.800000
0.009700  5.500000
-0.001500  5.900000
-0.008300  5.500000
-0.012800  5.900000
-0.009100  5.600000
0.000000  5.700000
0.014200  5.700000
0.021000  5.600000
0.018700  5.900000
0.007500  5.700000
-0.008300  5.700000
-0.000800  5.700000
0.020200  5.600000
0.021700  5.600000
0.012700  5.700000
0.017200  5.700000
0.018000  5.500000
0.014200  5.700000
0.010500  5.500000
0.003000  5.800000
-0.003800  5.400000
-0.012800  5.800000
-0.015800  5.600000
-0.020300  5.700000
-0.022500  5.500000
-0.016500  5.400000
0.000700  5.700000
0.021700  5.600000
0.024000  5.500000
0.006700  5.600000
-0.005300  5.400000
-0.013500  5.500000
-0.022500  5.600000
-0.018100  5.300000
-0.012800  5.700000
-0.014300  5.400000
-0.018100  5.500000
-0.018100  5.500000
-0.009100  5.300000
0.008200  5.700000
0.024700  5.400000
0.030000  5.500000
0.033700  5.400000
0.036700  5.500000
0.025500  5.300000
0.009000  5.700000
-0.010500  5.300000
-0.039000  5.600000
-0.049500  5.300000
-0.051100  5.500000
-0.054000  5.400000
-0.043600  5.300000
-0.021800  5.700000
0.010500  5.300000
0.044200  5.400000
0.067500  5.500000
0.072700  5.300000
0.065200  5.300000
0.042700  5.400000
0.015700  5.300000
-0.006000  5.400000
-0.024800  5.400000
-0.023300  5.300000
-0.016500  5.500000
-0.019500  5.300000
-0.019500  5.500000
-0.019500  5.100000
-0.016500  5.500000
-0.015000  5.300000
-0.015000  5.300000
-0.014300  5.300000
-0.012800  5.300000
-0.011300  5.500000
-0.008300  5.300000
-0.003000  5.300000
-0.003000  5.300000
-0.003800  5.400000
-0.008300  5.000000
-0.021000  5.300000
-0.026300  5.300000
-0.016500  5.300000
-0.008300  5.300000
0.002200  5.300000
0.012700  5.300000
0.012700  5.000000
0.015700  5.600000
0.018700  5.200000
0.021000  5.300000
0.023200  5.000000
0.015700  5.300000
0.004500  5.300000
-0.004600  5.300000
-0.006000  5.200000
-0.009100  5.200000
-0.019500  5.200000
-0.016500  5.100000
0.001500  5.300000
0.007500  5.000000
0.003000  5.300000
0.010500  5.000000
0.012700  5.300000
0.006700  5.100000
-0.005300  5.000000
-0.027000  5.100000
-0.037500  4.900000
-0.033000  5.100000
-0.034600  5.000000
-0.021800  5.300000
0.001500  5.000000
0.023200  5.200000
0.042700  4.900000
0.054000  5.100000
0.054700  5.000000
0.040500  5.100000
0.027000  5.200000
0.007500  5.000000
-0.014300  5.100000
-0.021800  4.700000
-0.023300  5.200000
-0.024000  4.700000
-0.021800  4.900000
-0.009800  4.900000
-0.001500  5.000000
0.006700  4.900000
0.009000  5.100000
0.003700  4.800000
-0.000800  5.100000
-0.004600  5.000000
0.001500  4.800000
0.008200  5.000000
0.012000  4.700000
0.015700  5.100000
0.016500  4.800000
0.012000  4.800000
0.006700  4.900000
-0.004600  4.800000
-0.012800  4.900000
-0.012000  4.800000
-0.013500  4.800000
-0.014300  4.900000
-0.015800  4.900000
-0.016500  4.900000
-0.015800  5.000000
-0.014300  4.500000
-0.009100  4.900000
-0.006800  4.500000
-0.003800  4.900000
0.000700  4.700000
0.000000  4.800000
-0.002300  4.900000
-0.002300  4.700000
0.001500  4.900000
0.004500  4.700000
0.000700  4.900000
-0.006800  4.700000
-0.010500  4.700000
-0.010500  4.500000
-0.009100  4.900000
-0.006800  4.500000
-0.004600  4.700000
-0.000800  4.700000
-0.000800  4.500000
-0.001500  4.700000
0.000000  4.400000
0.000700  4.900000
0.000700  4.300000
-0.001500  4.900000
0.000000  4.500000
0.006000  4.500000
0.012000  4.600000
0.012000  4.600000
0.005200  4.600000
-0.003800  4.500000
-0.008300  4.800000
-0.006000  4.300000
-0.002300  4.800000
-0.000800  4.400000
0.004500  4.700000
-0.000800  4.500000
-0.008300  4.600000
-0.015000  4.600000
-0.021800  4.300000
-0.021800  4.900000
-0.009100  4.200000
-0.008300  4.600000
-0.012800  4.500000
0.004500  4.500000
0.013500  4.500000
0.015700  4.500000
0.028500  4.400000
0.053200  4.400000
0.060000  4.400000
0.042000  4.400000
0.024700  4.600000
-0.003000  4.200000
-0.012000  4.500000
-0.005300  4.200000
-0.012000  4.400000
-0.010500  4.200000
-0.018100  4.500000
-0.021800  4.500000
-0.016500  4.400000
-0.015000  4.300000
-0.013500  4.300000
-0.012000  4.400000
-0.000800  4.300000
0.007500  4.200000
0.009700  4.100000
0.008200  4.300000
-0.002300  4.100000
-0.002300  4.300000
0.002200  4.300000
0.000700  4.000000
-0.001500  4.400000
-0.009800  4.100000
-0.010500  4.400000
-0.008300  4.200000
-0.006800  4.200000
-0.002300  4.200000
-0.002300  4.100000
-0.003000  4.000000
-0.005300  4.400000
-0.006000  3.900000
-0.003800  4.300000
-0.003000  4.100000
-0.003000  4.200000
-0.001500  4.200000
-0.001500  3.900000
-0.000800  4.400000
0.000000  4.100000
0.000700  4.200000
0.001500  4.100000
-0.000800  4.100000
-0.001500  4.100000
-0.001500  4.100000
-0.000800  4.100000
-0.001500  4.100000
-0.003800  4.100000
-0.004600  4.000000
-0.012800  4.200000
-0.015800  3.900000
-0.009800  4.200000
-0.004600  3.900000
0.004500  4.100000
0.009000  4.000000
0.014200  4.000000
0.016500  4.300000
0.009000  4.000000
-0.001500  3.900000
-0.021000  4.100000
-0.031500  4.000000
-0.027800  4.000000
-0.012800  4.200000
0.004500  3.800000
0.019500  4.200000
0.030700  4.000000
0.032200  4.000000
0.033000  4.000000
0.027700  3.900000
0.016500  4.200000
-0.002300  3.900000
-0.011300  4.100000
-0.009100  3.700000
-0.009100  4.100000
-0.008300  3.900000
-0.010500  3.900000
-0.008300  3.900000
-0.007500  3.900000
-0.009100  4.000000
-0.008300  4.000000
-0.008300  4.000000
-0.003800  3.900000
-0.005300  4.000000
-0.009100  3.700000
-0.015000  4.100000
-0.022500  3.700000
-0.021000  4.100000
-0.009800  3.700000
0.006700  4.000000
0.015700  3.900000
0.021700  3.900000
0.024000  4.000000
0.009700  3.900000
-0.006800  3.900000
-0.015800  4.000000
-0.010500  4.100000
0.003700  3.800000
0.008200  3.900000
0.019500  3.800000
0.029200  3.900000
0.024700  3.900000
0.006000  3.800000
-0.023300  4.000000
-0.025600  3.700000
-0.018100  4.000000
-0.014300  3.600000
-0.006800  3.800000
-0.004600  3.900000
0.006700  3.800000
0.018000  3.900000
0.021700  3.900000
0.026200  3.600000
0.021000  3.900000
0.007500  3.600000
-0.002300  4.000000
0.000000  3.600000
-0.003000  3.900000
-0.010500  3.700000
-0.010500  3.600000
-0.006800  4.000000
-0.001500  3.800000
-0.005300  3.900000
-0.008300  3.800000
-0.006800  3.600000
-0.009100  3.600000
-0.015000  3.800000
-0.010500  3.600000
-0.008300  4.000000
-0.009100  3.600000
-0.008300  3.900000
-0.009100  3.700000
-0.006000  3.600000
-0.004600  3.800000
-0.001500  3.600000
0.000700  3.900000
-0.000800  3.400000
-0.002300  3.900000
-0.003800  3.600000
-0.003000  3.700000
-0.000800  3.800000
0.003000  3.800000
0.001500  3.800000
-0.000800  3.700000
-0.000800  3.800000
-0.003000  3.700000
-0.003000  3.900000
-0.002300  3.500000
-0.001500  4.000000
0.000700  3.500000
0.002200  3.900000
0.004500  3.600000
0.007500  3.600000
0.003700  3.700000
0.000700  3.600000
0.000000  3.600000
-0.000800  3.700000
-0.001500  3.700000
-0.000800  3.600000
0.001500  3.700000
0.002200  3.600000
-0.000800  3.700000
-0.003800  3.300000
0.000000  3.700000
-0.001500  3.600000
-0.006800  3.500000
-0.007500  3.700000
-0.009100  3.500000
-0.004600  3.700000
0.000700  3.400000
0.004500  3.700000
0.005200  3.500000
0.004500  3.500000
0.007500  3.500000
0.006700  3.600000
-0.000800  3.400000
-0.006000  3.700000
-0.001500  3.400000
0.001500  3.700000
0.005200  3.600000
0.014200  3.500000
0.017200  3.700000
0.017200  3.300000
0.012000  3.600000
0.005200  3.500000
-0.006800  3.400000
-0.024800  3.400000
-0.036100  3.500000
-0.033000  3.500000
-0.024000  3.400000
-0.013500  3.400000
-0.000800  3.300000
0.012000  3.600000
0.024700  3.200000
0.026200  3.700000
0.024700  3.200000
0.021000  3.600000
0.004500  3.300000
-0.004600  3.300000
-0.008300  3.400000
-0.012000  3.100000
-0.012000  3.400000
-0.012800  3.300000
-0.009100  3.300000
-0.008300  3.200000
-0.008300  3.200000
-0.005300  3.300000
-0.003000  3.400000
-0.004600  3.200000
-0.006800  3.300000
-0.008300  3.300000
-0.009100  3.100000
-0.006800  3.600000
-0.001500  2.900000
0.001500  3.500000
-0.000800  3.100000
-0.003000  3.400000
-0.006000  3.100000
-0.005300  3.100000
-0.002300  3.100000
-0.001500  3.100000
0.003000  3.100000
0.002200  3.000000
0.003000  3.300000
0.004500  3.000000
0.003700  3.200000
0.004500  2.800000
0.005200  3.300000
0.006000  3.000000
0.001500  3.100000
0.000000  3.100000
0.000000  2.800000
0.000700  3.100000
0.004500  2.900000
0.000700  3.100000
-0.002300  3.000000
-0.004600  3.000000
-0.005300  3.000000
-0.006000  3.000000
-0.004600  2.900000
-0.001500  2.900000
-0.000800  3.000000
0.000700  2.700000
-0.001500  3.100000
-0.003000  2.700000
-0.000800  3.100000
0.001500  2.700000
-0.000800  3.000000
-0.006800  2.800000
-0.010500  2.700000
-0.004600  3.100000
-0.001500  2.700000
0.005200  2.700000
0.015000  2.800000
0.023200  2.800000
0.023200  2.600000
0.011200  2.900000
0.003000  2.700000
-0.007500  2.900000
-0.016500  2.700000
-0.025600  2.700000
-0.033800  2.800000
-0.027800  2.500000
-0.018100  2.800000
-0.012000  2.600000
-0.000800  2.900000
0.023200  2.800000
0.039000  2.700000
0.043500  2.500000
0.044200  2.500000
0.036700  2.300000
0.018000  2.800000
0.002200  2.500000
-0.007500  2.500000
-0.019500  2.500000
-0.023300  2.400000
-0.012000  2.600000
-0.009100  2.400000
-0.010500  2.500000
-0.000800  2.400000
0.001500  2.400000
0.000000  2.300000
-0.004600  2.200000
-0.009800  2.400000
-0.009100  2.300000
-0.008300  2.400000
-0.009100  2.300000
-0.009800  2.100000
-0.009100  2.200000
-0.010500  2.300000
-0.018100  1.800000
-0.026300  2.200000
-0.021800  1.900000
-0.010500  2.300000
-0.001500  1.900000
0.007500  2.100000
0.018000  2.000000
0.026200  1.800000
0.027700  2.100000
0.024000  1.900000
0.018700  1.800000
0.010500  2.000000
-0.003800  2.100000
-0.009100  1.600000
-0.009100  2.100000
-0.010500  1.600000
-0.009100  1.800000
-0.014300  1.800000
-0.021000  1.700000
-0.028500  1.800000
-0.027800  1.500000
-0.020300  1.800000
-0.010500  1.500000
0.006700  1.900000
0.018000  1.700000
0.024000  1.600000
0.020200  1.700000
0.015700  1.500000
0.012700  1.600000
0.005200  1.600000
-0.004600  1.500000
-0.015800  1.300000
-0.012000  1.800000
-0.007500  1.300000
-0.003800  1.800000
0.006700  1.300000
0.018000  1.600000
0.027000  1.300000
0.023200  1.600000
0.009000  1.600000
-0.003800  1.400000
-0.015800  1.400000
-0.021000  1.300000
-0.020300  1.300000
-0.012000  1.300000
0.003000  1.700000
0.012000  1.300000
0.019500  1.500000
0.027000  1.400000
0.026200  1.400000
0.008200  1.300000
-0.009100  1.300000
-0.009100  1.500000
-0.010500  1.100000
-0.011300  1.500000
-0.012000  1.100000
-0.012800  1.300000
-0.012000  1.300000
-0.010500  1.300000
-0.008300  1.100000
-0.003800  1.500000
0.001500  0.900000
0.001500  1.300000
-0.001500  1.100000
-0.003000  1.200000
-0.003000  1.400000
-0.004600  1.100000
-0.003800  1.300000
-0.004600  1.100000
-0.002300  1.300000
0.002200  1.100000
0.000700  1.100000
0.000000  1.200000
0.000000  1.200000
-0.007500  1.100000
-0.014300  1.200000
-0.014300  1.200000
-0.010500  1.100000
-0.005300  1.300000
0.001500  1.200000
0.007500  1.500000
0.013500  1.000000
0.017200  1.300000
0.014200  1.100000
0.006000  1.300000
-0.006800  1.200000
-0.019500  1.200000
-0.020300  1.400000
-0.008300  1.200000
0.004500  1.100000
0.010500  1.100000
0.003000  1.300000
-0.002300  1.100000
0.001500  1.500000
0.004500  1.000000
0.009700  1.300000
0.012000  1.100000
0.013500  1.300000
0.012700  1.300000
0.010500  1.100000
0.012000  1.400000
0.006000  1.000000
0.000700  1.500000
0.003000  1.100000
0.006000  1.200000
0.000000  1.300000
-0.008300  1.300000
-0.015800  1.200000
-0.024000  1.300000
-0.012800  1.400000
0.001500  1.400000
-0.002300  1.400000
-0.006000  1.100000
-0.006800  1.400000
-0.009100  1.200000
-0.012000  1.500000
-0.013500  1.300000
-0.014300  1.400000
-0.015800  1.300000
-0.009100  1.300000
-0.003800  1.400000
-0.002300  1.500000
-0.002300  1.500000
-0.007500  1.500000
-0.012000  1.300000
-0.009100  1.500000
-0.004600  1.400000
0.000700  1.300000
0.016500  1.500000
0.031500  1.400000
0.038200  1.400000
0.029200  1.500000
0.015700  1.500000
0.008200  1.500000
-0.003000  1.300000
-0.008300  1.600000
-0.011300  1.500000
-0.010500  1.400000
-0.012000  1.600000
-0.012000  1.500000
-0.009800  1.300000
-0.010500  1.800000
-0.006800  1.300000
-0.000800  1.600000
-0.001500  1.400000
-0.006000  1.700000
-0.010500  1.500000
-0.018800  1.600000
-0.021800  1.600000
-0.018100  1.500000
-0.012800  1.500000
0.000000  1.400000
0.011200  1.500000
0.020200  1.700000
0.024700  1.700000
0.024000  1.400000
0.018000  2.100000
0.000000  1.400000
-0.015000  1.800000
-0.017300  1.500000
-0.012000  1.800000
-0.005300  1.800000
0.005200  1.700000
0.014200  1.800000
0.020200  1.500000
0.025500  1.900000
0.024000  1.500000
0.014200  1.900000
0.002200  1.700000
-0.009800  1.500000
-0.014300  1.600000
-0.014300  1.800000
-0.012800  1.600000
-0.010500  1.700000
-0.013500  1.800000
-0.012800  1.700000
-0.012800  1.800000
-0.013500  1.500000
-0.015000  1.800000
-0.018100  1.600000
-0.015000  1.800000
-0.008300  1.700000
-0.002300  1.800000
0.006000  1.900000
0.015700  1.700000
0.025500  1.700000
0.030000  1.800000
0.025500  1.800000
0.016500  1.700000
0.001500  1.800000
-0.014300  1.600000
-0.015800  1.900000
-0.004600  1.700000
0.003700  1.800000
0.002200  2.000000
-0.008300  1.700000
-0.008300  1.900000
-0.004600  1.600000
-0.008300  1.900000
-0.005300  1.600000
-0.010500  1.800000
-0.015000  1.700000
-0.006800  1.900000
-0.005300  1.700000
-0.004600  1.900000
0.001500  1.600000
0.004500  1.900000
0.012700  1.900000
0.015700  1.700000
0.012000  1.800000
0.010500  1.700000
-0.003800  1.800000
-0.011300  1.800000
-0.004600  1.900000
-0.000800  1.900000
0.006000  1.600000
-0.003800  1.900000
-0.021800  1.800000
-0.027000  1.800000
-0.020300  1.800000
-0.011300  1.800000
-0.003800  1.600000
0.012700  2.100000
0.027000  1.600000
0.034500  2.100000
0.037500  1.500000
0.031500  1.800000
0.018000  1.700000
0.003000  1.700000
-0.005300  1.900000
-0.006800  1.800000
-0.010500  2.000000
-0.009100  1.800000
-0.005300  1.700000
-0.009100  1.800000
-0.012000  2.100000
-0.011300  1.700000
-0.010500  2.000000
-0.010500  1.500000
-0.012800  1.800000
-0.015000  1.800000
-0.014300  1.700000
-0.012800  2.000000
-0.015800  1.600000
-0.021800  2.000000
-0.022500  1.500000
-0.014300  1.900000
-0.009100  1.600000
0.000700  1.800000
0.015000  1.800000
0.016500  1.700000
0.010500  1.700000
0.008200  1.800000
0.009000  1.800000
0.004500  1.700000
0.005200  1.800000
0.011200  1.600000
0.018000  2.100000
0.016500  1.500000
0.010500  2.000000
0.005200  1.800000
-0.005300  1.800000
-0.015800  1.800000
-0.021800  1.700000
-0.021800  1.700000
-0.018800  1.700000
-0.010500  1.900000
-0.003800  1.800000
0.006000  1.900000
0.012000  1.800000
0.015700  2.000000
0.015000  1.700000
0.008200  1.900000
0.002200  1.800000
-0.009100  1.700000
-0.003000  2.000000
0.008200  1.700000
0.003000  1.900000
0.002200  1.700000
0.002200  1.800000
0.003000  1.800000
0.005200  1.800000
0.000000  1.800000
-0.005300  2.100000
-0.009100  1.800000
-0.010500  1.900000
-0.008300  1.700000
-0.013500  1.800000
-0.020300  1.800000
-0.020300  1.800000
-0.016500  2.000000
-0.009100  1.700000
0.004500  1.900000
0.014200  1.700000
0.017200  1.800000
0.012700  1.900000
0.009700  1.600000
0.006700  1.700000
0.006700  1.800000
0.012700  1.800000
0.009000  1.600000
0.004500  1.800000
0.014200  1.500000
0.012000  2.100000
0.010500  1.600000
0.012700  2.000000
0.009000  1.700000
0.012000  1.800000
0.014200  1.800000
0.008200  1.700000
0.000700  1.800000
-0.008300  1.800000
-0.017300  1.800000
-0.019500  1.800000
-0.016500  1.700000
-0.014300  1.500000
-0.010500  1.900000
-0.010500  1.600000
-0.011300  1.800000
-0.011300  1.800000
-0.008300  1.700000
-0.007500  1.800000
-0.006800  1.600000
-0.006800  1.900000
-0.008300  1.400000
-0.008300  1.800000
-0.009100  1.500000
-0.008300  1.700000
-0.006800  1.800000
-0.011300  1.800000
-0.020300  1.800000
-0.023300  1.700000
-0.012800  1.900000
-0.006000  1.600000
0.001500  2.200000
0.016500  1.600000
0.024700  1.900000
0.027000  1.700000
0.022500  1.800000
0.015000  1.800000
0.006700  1.700000
-0.004600  2.000000
-0.008300  1.400000
-0.004600  1.700000
-0.002300  1.800000
-0.001500  1.700000
-0.003800  1.700000
-0.005300  1.800000
-0.005300  1.800000
-0.005300  1.800000
-0.003000  1.900000
-0.002300  1.600000
-0.002300  1.900000
-0.000800  1.700000
0.001500  2.100000
0.003000  1.700000
0.000000  1.900000
-0.001500  1.700000
-0.004600  1.800000
-0.004600  1.800000
-0.003800  1.700000
-0.003800  1.800000
-0.008300  1.800000
-0.015000  1.800000
-0.012000  1.800000
-0.009800  1.800000
-0.009100  1.600000
-0.006000  1.800000
0.007500  1.700000
0.024700  1.900000
0.030000  1.900000
0.030700  1.500000
0.024000  1.800000
0.009700  1.700000
-0.006000  1.900000
-0.010500  1.900000
-0.015000  1.800000
-0.014300  1.800000
-0.005300  1.800000
0.000700  1.500000
0.020200  2.000000
0.029200  1.800000
0.033700  2.000000
0.033000  1.800000
0.015700  1.800000
-0.008300  1.800000
-0.032300  1.800000
-0.027000  1.900000
-0.015800  1.700000
-0.019500  1.800000
-0.019500  1.800000
-0.019500  1.800000
-0.018800  1.800000
-0.010500  1.800000
-0.003000  1.800000
-0.000800  1.700000
-0.000800  1.900000
0.004500  1.700000
0.012000  2.000000
0.012000  1.700000
0.008200  1.900000
0.002200  1.700000
-0.002300  1.800000
-0.004600  1.800000
-0.005300  1.800000
-0.008300  1.600000
-0.008300  1.500000
-0.006000  1.800000
-0.010500  1.700000
-0.021800  1.800000
-0.026300  1.600000
-0.019500  2.000000
-0.019500  1.500000
-0.018800  1.900000
-0.006800  1.800000
0.002200  1.900000
0.000700  1.600000
-0.008300  1.700000
-0.003000  1.800000
0.011200  1.700000
0.014200  2.000000
0.024000  1.500000
0.038200  1.800000
0.042000  1.900000
0.040500  1.600000
0.032200  1.800000
0.019500  1.900000
-0.003800  1.800000
-0.022500  1.500000
-0.024000  1.900000
-0.024000  1.600000
-0.024000  1.800000
-0.021800  1.500000
-0.018100  1.700000
-0.015000  1.600000
-0.015800  1.800000
-0.013500  1.700000
0.000700  1.500000
0.013500  1.800000
0.012000  1.700000
0.012000  1.800000
0.019500  1.700000
0.018000  1.600000
0.013500  1.500000
0.009000  1.700000
-0.004600  1.500000
-0.016500  1.700000
-0.012000  1.600000
-0.005300  1.600000
-0.003000  1.700000
0.005200  1.500000
0.014200  1.900000
0.015000  1.500000
0.008200  2.100000
0.000700  1.500000
-0.004600  1.600000
-0.006800  1.500000
-0.019500  1.600000
-0.031500  1.400000
-0.031500  1.800000
-0.026300  1.600000
-0.010500  1.600000
0.003000  1.600000
0.012000  1.500000
0.008200  1.700000
0.012000  1.500000
0.017200  1.700000
0.018000  1.700000
0.023200  1.600000
0.026200  1.800000
0.032200  1.500000
0.031500  1.700000
0.025500  1.600000
0.009000  1.600000
-0.007500  1.700000
-0.018100  1.700000
-0.021800  1.500000
-0.018800  1.800000
-0.020300  1.400000
-0.017300  1.800000
-0.017300  1.500000
-0.018100  1.700000
-0.014300  1.700000
-0.014300  1.700000
-0.012800  1.800000
-0.012000  1.700000
-0.012800  1.600000
-0.013500  1.700000
-0.013500  1.600000
-0.013500  1.800000
-0.010500  2.000000
-0.006800  1.500000
-0.003000  2.000000
0.001500  1.700000
0.003000  1.800000
0.001500  1.700000
-0.012000  1.500000
-0.027800  1.800000
-0.030800  1.400000
-0.023300  2.000000
-0.006800  1.600000
0.015000  1.900000
0.030700  1.800000
0.040500  1.600000
0.025500  1.800000
0.006700  1.800000
0.006700  1.700000
0.002200  1.800000
0.016500  2.000000
0.031500  1.500000
0.023200  1.800000
0.009700  1.600000
-0.008300  2.100000
-0.003800  1.700000
-0.001500  1.900000
-0.016500  1.700000
-0.024000  1.900000
-0.039000  1.800000
-0.072100  1.800000
-0.082500  1.700000
-0.060000  1.800000
-0.031500  1.700000
0.006700  1.500000
0.045700  1.900000
0.081000  1.500000
0.129000  1.800000
0.165000  1.700000
0.145500  1.800000
0.077200  1.900000
-0.000800  1.600000
-0.046500  2.000000
-0.057800  1.500000
-0.064500  2.000000
-0.081800  1.600000
-0.100600  1.800000
-0.093800  1.800000
-0.063000  1.900000
-0.044300  1.800000
-0.035300  1.900000
-0.007500  1.700000
0.021700  1.800000
0.054700  1.800000
0.108000  1.800000
0.120700  1.900000
0.101200  1.500000
0.104200  2.000000
0.105700  1.800000
0.082500  1.800000
0.022500  1.900000
-0.008300  1.700000
-0.020300  2.000000
-0.051800  1.900000
-0.052500  1.800000
-0.045800  1.800000
-0.048000  1.900000
-0.057000  1.600000
-0.067500  2.100000
-0.064500  1.600000
-0.051800  1.900000
-0.041300  1.800000
-0.030000  1.800000
-0.012000  2.000000
0.000700  1.800000
0.001500  2.000000
-0.001500  1.700000
-0.004600  1.900000
-0.006800  1.900000
-0.009100  1.800000
-0.009100  1.900000
-0.010500  1.900000
-0.009100  1.800000
-0.005300  2.000000
-0.003000  1.900000
-0.006800  1.800000
-0.009100  2.100000
-0.006800  1.700000
-0.006800  2.100000
-0.005300  1.700000
-0.006800  2.200000
-0.008300  1.900000
-0.013500  2.100000
-0.020300  2.100000
-0.024000  2.200000
-0.020300  2.000000
-0.007500  2.200000
0.005200  2.200000
0.014200  1.900000
0.019500  2.400000
0.014200  2.000000
0.008200  2.400000
0.018000  2.100000
0.018000  2.300000
0.002200  2.200000
0.001500  2.200000
0.010500  2.400000
0.003700  2.300000
0.006700  2.700000
0.014200  2.200000
-0.001500  2.600000
-0.012000  2.700000
-0.008300  2.400000
0.008200  2.500000
0.037500  2.600000
0.051700  2.600000
0.046500  2.600000
0.030700  2.800000
0.008200  2.400000
0.003700  3.000000
-0.004600  2.600000
-0.036800  2.800000
-0.042000  2.700000
-0.038300  2.700000
-0.046500  2.800000
-0.036100  2.600000
-0.017300  2.700000
0.001500  2.800000
0.012700  2.800000
-0.003000  2.900000
-0.054000  2.900000
-0.099000  2.700000
-0.111000  3.100000
-0.115500  2.800000
-0.101300  2.900000
-0.078000  2.900000
-0.060800  2.800000
-0.016500  3.000000
0.039000  2.800000
0.109500  3.300000
0.186700  2.700000
0.225700  3.100000
0.221200  3.000000
0.193500  3.100000
0.193500  3.100000
0.219700  3.100000
0.200200  2.900000
0.128200  3.300000
0.027000  3.000000
-0.043600  3.000000
-0.057000  3.200000
-0.071300  2.900000
-0.108000  3.200000
-0.156000  3.100000
-0.171100  3.100000
-0.146300  3.100000
-0.116300  3.100000
-0.072800  3.400000
-0.017300  3.200000
0.054700  3.300000
0.091500  3.300000
0.076500  3.400000
0.034500  3.100000
-0.027000  3.700000
-0.057000  3.300000
-0.064500  3.600000
-0.067500  3.300000
-0.084800  3.600000
-0.102800  3.400000
-0.101300  3.500000
-0.093000  3.500000
-0.063800  3.400000
-0.011300  3.600000
0.027000  3.600000
0.043500  3.600000
0.042000  3.600000
0.009000  3.500000
-0.021800  3.600000
-0.026300  3.600000
-0.034600  3.600000
-0.037500  3.600000
-0.010500  3.700000
0.025500  3.500000
0.054000  4.000000
0.063000  3.500000
0.057700  3.900000
0.027000  3.800000
-0.015000  3.700000
-0.036100  3.900000
-0.042000  3.700000
-0.017300  3.900000
0.015700  3.800000
0.040500  3.900000
0.043500  3.900000
0.046500  4.100000
0.039700  3.900000
-0.006800  4.000000
-0.033000  4.000000
-0.036800  3.800000
-0.049500  4.100000
-0.045800  3.900000
-0.008300  4.200000
0.036700  3.900000
0.066000  4.200000
0.075000  3.900000
0.062200  4.000000
0.035200  4.100000
-0.002300  4.200000
-0.023300  4.000000
-0.025600  3.900000
-0.027000  4.400000
-0.015800  3.900000
0.003700  4.400000
0.013500  4.000000
0.012000  4.300000
0.006700  4.100000
0.009000  4.100000
0.015700  4.200000
0.007500  4.000000
-0.011300  4.400000
-0.035300  4.000000
-0.065300  4.300000
-0.082500  4.300000
-0.081800  4.200000
-0.064500  4.300000
-0.057000  4.500000
-0.046500  4.400000
0.007500  4.300000
0.056200  4.500000
0.064500  4.000000
0.038200  4.500000
0.020200  4.100000
0.028500  4.600000
0.031500  4.200000
0.025500  4.500000
0.012700  4.300000
-0.013500  4.500000
-0.013500  4.400000
0.037500  4.300000
0.075000  4.500000
0.100500  4.400000
0.105700  4.400000
0.076500  4.300000
0.009700  4.500000
-0.055500  4.300000
-0.072800  4.300000
-0.075000  4.400000
-0.048000  4.400000
-0.025600  4.700000
0.006700  4.300000
0.029200  4.700000
0.020200  4.500000
0.024000  4.800000
0.009700  4.500000
0.006000  4.500000
-0.003000  4.500000
-0.021800  4.500000
-0.036100  4.400000
-0.037500  4.800000
-0.027000  4.500000
-0.023300  4.500000
-0.012000  4.600000
-0.007500  4.500000
-0.006000  4.700000
-0.007500  4.400000
-0.005300  4.500000
-0.007500  4.500000
-0.006800  4.400000
0.001500  4.700000
0.001500  4.500000
-0.001500  4.500000
-0.009100  4.600000
-0.015800  4.500000
-0.024800  4.500000
-0.034600  4.700000
-0.043600  4.400000
-0.042000  4.700000
-0.029300  4.200000
-0.013500  4.800000
0.012700  4.500000
0.017200  4.600000
0.006700  4.700000
0.003000  4.500000
0.009000  4.800000
0.023200  4.500000
0.031500  4.600000
0.051000  4.600000
0.076500  4.500000
0.085500  4.600000
0.063000  4.800000
0.036700  4.600000
0.017200  4.500000
-0.001500  4.600000
-0.009800  4.300000
-0.026300  4.700000
-0.038300  4.300000
-0.048800  4.700000
-0.054000  4.400000
-0.042000  4.500000
-0.033000  4.500000
-0.016500  4.500000
0.003700  4.600000
0.021000  4.500000
0.024000  4.500000
-0.000800  4.400000
-0.036800  4.600000
-0.057000  4.300000
-0.054800  4.600000
-0.042000  4.100000
-0.014300  4.500000
0.020200  4.400000
0.049500  4.400000
0.075000  4.500000
0.087700  4.200000
0.072000  4.600000
0.036000  4.100000
0.006000  4.600000
-0.011300  4.400000
-0.012000  4.500000
-0.000800  4.300000
-0.001500  4.500000
-0.017300  4.400000
-0.031500  4.200000
-0.053300  4.500000
-0.097500  4.200000
-0.117800  4.500000
-0.090000  4.300000
-0.051800  4.500000
0.010500  4.200000
0.080200  4.500000
0.121500  4.300000
0.132700  4.200000
0.098200  4.500000
0.040500  4.400000
-0.001500  4.400000
-0.020300  4.200000
-0.035300  4.300000
-0.035300  4.200000
-0.022500  4.500000
-0.012800  4.200000
-0.007500  4.400000
-0.027000  4.300000
-0.045800  4.200000
-0.046500  4.300000
-0.027000  4.100000
-0.018100  4.500000
-0.014300  4.000000
0.003000  4.400000
0.019500  4.100000
0.036700  4.300000
0.051000  4.200000
0.046500  4.100000
0.024000  4.100000
0.006700  4.200000
-0.005300  4.100000
-0.008300  4.000000
-0.015000  4.400000
-0.018100  3.900000
-0.018100  4.300000
-0.025600  4.000000
-0.018100  4.200000
-0.018800  4.100000
-0.014300  4.000000
-0.004600  4.300000
0.003000  4.000000
0.007500  4.200000
0.010500  4.300000
0.015000  4.100000
0.017200  4.000000
0.024000  4.200000
0.016500  4.000000
0.008200  4.300000
-0.003000  3.900000
-0.015800  4.100000
-0.006800  4.000000
-0.012000  4.100000
-0.025600  4.100000
-0.032300  4.000000
-0.033800  4.300000
-0.023300  4.000000
-0.010500  4.100000
-0.005300  4.100000
0.000700  4.000000
0.023200  4.000000
0.034500  4.200000
0.035200  4.000000
0.013500  4.000000
-0.015800  4.300000
-0.030800  3.700000
-0.042000  4.200000
-0.024000  3.900000
0.005200  4.100000
0.031500  4.000000
0.048700  4.000000
0.054000  4.100000
0.057000  3.900000
0.042700  4.100000
0.018000  4.000000
0.003000  4.000000
-0.011300  4.000000
-0.029300  4.000000
-0.027000  3.800000
-0.015000  4.200000
-0.000800  3.800000
0.011200  4.100000
0.004500  3.900000
-0.004600  4.000000
-0.003000  4.100000
-0.005300  3.900000
-0.014300  4.300000
-0.018100  3.900000
-0.012000  4.100000
-0.008300  4.000000
-0.008300  4.000000
-0.007500  4.000000
-0.010500  3.900000
-0.016500  4.000000
-0.021800  3.900000
-0.023300  4.200000
-0.018100  3.800000
-0.012800  4.200000
-0.009100  3.800000
-0.006800  4.100000
-0.003000  3.900000
0.006700  4.000000
0.019500  4.000000
0.023200  3.900000
0.018000  4.200000
0.012700  3.800000
0.000700  4.000000
-0.013500  4.000000
-0.014300  4.200000
-0.008300  3.900000
0.000700  4.100000
0.010500  3.800000
0.016500  3.900000
0.018000  3.900000
0.017200  3.900000
0.012700  4.200000
0.005200  3.800000
-0.006000  4.300000
-0.015800  3.800000
-0.021800  4.200000
-0.026300  3.900000
-0.028500  3.900000
-0.019500  4.000000
-0.009100  3.900000
0.000000  4.000000
0.011200  4.100000
0.015700  4.200000
0.012000  3.900000
0.001500  4.100000
-0.015000  3.900000
-0.034600  4.000000
-0.035300  3.900000
-0.031500  3.900000
-0.027000  4.000000
0.000700  3.900000
0.023200  4.200000
0.036700  3.700000
0.049500  4.100000
0.063000  3.900000
0.056200  4.000000
0.024000  4.100000
0.000700  4.300000
-0.009100  3.700000
-0.015000  4.100000
-0.012000  3.900000
0.001500  4.000000
0.012700  4.000000
0.019500  4.000000
0.020200  4.000000
0.019500  3.900000
0.008200  4.000000
-0.004600  3.800000
-0.005300  3.900000
-0.011300  4.100000
-0.018800  3.900000
-0.016500  3.800000
-0.014300  3.900000
-0.015800  4.000000
-0.015800  3.800000
-0.014300  4.100000
-0.014300  3.800000
-0.015800  4.000000
-0.017300  3.700000
-0.013500  4.200000
-0.009100  3.900000
-0.008300  3.800000
-0.010500  3.900000
-0.012800  3.900000
-0.019500  4.000000
-0.028500  3.800000
-0.025600  3.800000
-0.018100  3.900000
-0.006000  3.900000
0.010500  3.800000
0.018000  4.100000
0.010500  3.600000
0.003700  3.900000
0.001500  3.700000
-0.009100  3.700000
-0.003800  3.900000
0.009000  3.600000
0.027000  4.000000
0.044200  3.600000
0.042000  4.000000
0.027700  3.800000
0.015000  3.900000
0.002200  3.700000
-0.009100  3.900000
-0.008300  3.900000
-0.012800  3.800000
-0.012000  4.000000
-0.008300  3.700000
-0.010500  4.000000
-0.007500  3.600000
-0.005300  3.900000
-0.006000  3.700000
-0.012800  3.800000
-0.024000  3.700000
-0.041300  3.600000
-0.045000  3.900000
-0.029300  3.600000
-0.012000  3.800000
0.011200  3.700000
0.033000  3.700000
0.044200  3.900000
0.045000  3.800000
0.042000  3.600000
0.030700  3.800000
0.014200  3.700000
0.001500  3.600000
-0.001500  3.800000
0.003000  3.600000
0.001500  3.900000
-0.000800  3.600000
-0.009800  3.700000
-0.018100  3.500000
-0.025600  3.900000
-0.039800  3.800000
-0.039000  3.900000
-0.020300  3.700000
-0.003000  3.600000
0.013500  3.600000
0.033700  3.700000
0.042000  3.800000
0.034500  3.600000
0.020200  3.800000
0.018700  3.600000
0.006700  3.600000
-0.016500  3.600000
-0.030000  3.600000
-0.030000  3.800000
-0.019500  3.400000
-0.014300  3.800000
-0.003800  3.800000
-0.000800  3.700000
0.000000  3.600000
0.005200  3.600000
0.000000  3.400000
0.000000  3.900000
-0.001500  3.500000
-0.004600  3.600000
-0.012800  3.500000
-0.025600  3.500000
-0.022500  3.700000
-0.009100  3.600000
0.017200  3.600000
0.036000  3.400000
0.039700  3.600000
0.027700  3.500000
0.015700  3.500000
0.015000  3.600000
0.003000  3.600000
-0.006800  3.500000
-0.008300  3.600000
-0.006800  3.600000
-0.006800  3.400000
-0.007500  3.600000
-0.010500  3.400000
-0.012800  3.500000
-0.012000  3.300000
-0.010500  3.600000
-0.006800  3.400000
-0.003800  3.500000
-0.003000  3.500000
-0.004600  3.500000
-0.006000  3.400000
-0.006000  3.400000
-0.002300  3.400000
-0.000800  3.300000
-0.001500  3.700000
-0.001500  3.100000
-0.000800  3.600000
-0.001500  3.200000
-0.005300  3.500000
-0.005300  3.500000
-0.005300  3.300000
-0.004600  3.500000
-0.003000  3.100000
-0.000800  3.600000
0.003000  3.200000
0.002200  3.500000
0.003000  3.300000
0.004500  3.300000
0.006700  3.300000
0.009000  3.300000
0.007500  3.400000
0.002200  3.300000
-0.000800  3.400000
-0.000800  3.300000
0.001500  3.600000
0.003000  3.100000
0.005200  3.500000
0.004500  3.200000
-0.003000  3.200000
-0.016500  3.200000
-0.024800  3.300000
-0.020300  3.500000
-0.019500  3.200000
-0.024000  3.200000
-0.024800  3.300000
-0.016500  3.100000
0.002200  3.100000
0.018000  3.200000
0.030700  3.200000
0.042000  3.300000
0.042000  3.300000
0.035200  3.200000
0.027000  3.200000
0.016500  3.100000
-0.003800  3.200000
-0.020300  3.000000
-0.027000  3.300000
-0.030000  2.900000
-0.027000  3.100000
-0.014300  3.100000
-0.004600  3.200000
0.000000  3.100000
0.001500  3.400000
0.006000  3.000000
0.009000  3.200000
0.008200  3.000000
0.001500  3.200000
-0.002300  3.100000
-0.006000  3.000000
-0.006000  3.200000
-0.006800  3.000000
-0.008300  3.100000
-0.003800  3.000000
-0.001500  3.000000
0.000700  3.000000
0.006700  3.000000
0.006000  3.000000
-0.000800  3.100000
-0.008300  2.800000
-0.012800  3.000000
-0.010500  2.900000
-0.009800  3.000000
-0.011300  3.200000
-0.008300  2.800000
-0.000800  3.100000
0.008200  2.800000
0.004500  3.300000
-0.002300  2.800000
-0.006000  3.000000
-0.001500  3.000000
0.009000  2.900000
0.018000  2.800000
0.023200  2.700000
0.018000  2.900000
0.010500  2.700000
0.007500  3.100000
0.002200  2.600000
-0.008300  3.000000
-0.010500  2.600000
-0.008300  2.800000
-0.005300  2.700000
-0.006800  2.700000
-0.006800  3.000000
-0.006800  2.600000
-0.006800  3.000000
-0.005300  2.600000
-0.008300  2.700000
-0.008300  2.900000
-0.008300  2.700000
-0.006800  2.500000
-0.002300  2.800000
-0.000800  2.600000
-0.000800  2.700000
0.000000  2.700000
0.003000  2.500000
0.005200  2.800000
0.003000  2.400000
0.003000  2.700000
0.003000  2.300000
-0.001500  2.500000
-0.010500  2.400000
-0.019500  2.500000
-0.020300  2.400000
-0.015800  2.500000
-0.009100  2.400000
0.003000  2.600000
0.012700  2.600000
0.022500  2.500000
0.026200  2.600000
0.025500  2.400000
0.018000  2.600000
-0.003000  2.300000
-0.020300  2.400000
-0.022500  2.500000
-0.014300  2.200000
-0.005300  2.400000
0.005200  2.200000
0.012700  2.500000
0.018000  2.200000
0.014200  2.400000
0.009000  2.400000
0.005200  2.500000
-0.003000  2.100000
-0.008300  2.400000
-0.006800  2.200000
-0.009100  2.400000
-0.020300  2.200000
-0.021800  2.100000
-0.014300  2.100000
-0.009800  2.000000
-0.001500  2.400000
0.009000  2.100000
0.018700  2.200000
0.019500  2.300000
0.019500  2.200000
0.019500  2.100000
0.017200  1.900000
0.009000  2.000000
0.000700  2.000000
-0.006000  2.200000
-0.012000  1.800000
-0.005300  2.200000
-0.001500  1.800000
-0.006000  2.200000
-0.008300  1.800000
-0.009100  2.100000
-0.011300  1.800000
-0.009100  2.000000
-0.008300  2.300000
-0.009800  1.800000
-0.008300  2.000000
-0.000800  1.800000
0.003000  1.800000
0.001500  1.600000
-0.003000  2.100000
-0.006800  1.800000
-0.008300  1.900000
-0.006800  1.600000
-0.004600  1.800000
-0.003000  1.600000
-0.004600  1.500000
-0.004600  1.800000
-0.006000  1.500000
-0.003000  1.700000
-0.003800  1.300000
-0.006000  1.700000
-0.006800  1.500000
-0.009100  1.500000
-0.015800  1.400000
-0.017300  1.600000
-0.009100  1.500000
0.000000  1.500000
0.009000  1.500000
0.019500  1.200000
0.026200  1.600000
0.021000  1.000000
0.010500  1.500000
0.012700  1.300000
0.007500  1.500000
0.005200  1.200000
0.010500  1.300000
0.015000  1.300000
0.018000  1.300000
0.012000  1.200000
0.010500  1.300000
0.004500  1.200000
-0.007500  1.000000
-0.012800  1.200000
-0.014300  0.900000
-0.013500  1.300000
-0.015000  1.000000
-0.021800  1.000000
-0.033000  1.000000
-0.036100  0.900000
-0.027800  1.100000
-0.023300  0.800000
-0.020300  1.100000
-0.005300  0.900000
0.009700  1.000000
0.022500  0.700000
0.037500  0.900000
0.044200  0.700000
0.041200  1.000000
0.033000  0.700000
0.026200  0.900000
0.013500  0.700000
0.003000  0.900000
-0.004600  0.700000
-0.009100  0.700000
-0.012000  0.800000
-0.018100  0.700000
-0.016500  0.600000
-0.015800  0.700000
-0.009100  0.400000
-0.005300  0.400000
-0.004600  0.500000
-0.000800  0.500000
-0.003000  0.600000
-0.003000  0.400000
-0.000800  0.400000
-0.003000  0.700000
-0.004600  0.400000
-0.006800  0.700000
-0.009800  0.200000
-0.008300  0.500000
-0.007500  0.200000
-0.009100  0.500000
-0.012800  0.300000
-0.015800  0.300000
-0.010500  0.300000
-0.009100  0.100000
-0.002300  0.200000
0.009000  0.300000
0.015000  0.400000
0.012700  0.100000
-0.002300  0.400000
-0.009100  0.100000
-0.007500  0.100000
-0.008300  0.200000
-0.000800  0.100000
0.018000  0.200000
0.030700  0.000000
0.031500  0.300000
0.024000  -0.200000
0.015000  0.200000
0.000700  0.100000
-0.008300  0.000000
-0.009100  0.100000
-0.010500  0.000000
-0.006800  0.000000
-0.006000  -0.200000
-0.004600  0.100000
0.000700  -0.200000
0.002200  0.200000
-0.008300  -0.300000
-0.015800  0.300000
-0.012000  -0.300000
-0.010500  0.100000
-0.006800  0.000000
-0.004600  0.000000
-0.005300  -0.100000
-0.004600  0.000000
-0.003800  -0.100000
-0.005300  -0.100000
-0.004600  -0.100000
-0.009800  -0.200000
-0.019500  0.100000
-0.020300  -0.100000
-0.018100  -0.100000
-0.015800  -0.200000
-0.005300  -0.200000
0.005200  -0.100000
0.017200  -0.200000
0.024000  0.100000
0.024000  -0.400000
0.022500  0.100000
0.024000  -0.200000
0.027700  0.000000
0.030700  0.000000
0.023200  0.000000
0.004500  -0.100000
-0.005300  0.100000
-0.012000  -0.300000
-0.018100  0.000000
-0.015800  0.000000
-0.013500  0.000000
-0.010500  0.200000
-0.007500  -0.100000
-0.006800  0.000000
-0.011300  -0.100000
-0.021800  -0.200000
-0.027000  0.000000
-0.021800  -0.200000
-0.012800  -0.100000
-0.003000  -0.200000
0.009000  0.100000
0.015000  0.000000
0.020200  0.100000
0.021700  -0.200000
0.023200  0.200000
0.021700  -0.100000
0.011200  0.200000
0.000700  0.100000
-0.005300  0.000000
-0.011300  0.100000
-0.018800  0.000000
-0.029300  0.200000
-0.035300  -0.100000
-0.031500  0.100000
-0.019500  0.000000
0.001500  0.000000
0.017200  0.000000
0.030700  0.100000
0.035200  -0.200000
0.034500  0.100000
0.031500  0.000000
0.016500  0.000000
-0.000800  0.300000
-0.013500  0.000000
-0.014300  0.400000
-0.009800  -0.100000
-0.008300  0.300000
-0.007500  0.000000
-0.010500  0.100000
-0.007500  0.200000
-0.005300  0.200000
-0.006800  0.100000
-0.008300  0.100000
-0.008300  0.100000
-0.005300  0.100000
-0.001500  0.300000
0.001500  0.000000
0.001500  0.300000
0.000700  0.000000
-0.003000  0.400000
-0.003800  0.100000
-0.005300  0.100000
-0.006800  0.300000
-0.010500  0.000000
-0.020300  0.400000
-0.029300  -0.100000
-0.023300  0.100000
-0.009100  0.400000
-0.000800  0.200000
0.009000  0.100000
0.023200  0.300000
0.034500  0.100000
0.030700  0.300000
0.024700  0.400000
0.015700  0.000000
0.003000  0.400000
-0.009100  0.000000
-0.012000  0.400000
-0.001500  0.000000
0.004500  0.200000
0.009000  0.100000
0.010500  0.200000
0.006700  0.100000
0.001500  0.300000
-0.001500  0.300000
-0.006800  0.100000
-0.011300  0.300000
-0.008300  0.100000
-0.006800  0.300000
-0.006800  0.100000
-0.005300  0.400000
-0.004600  0.200000
-0.005300  0.000000
-0.006000  0.400000
-0.005300  0.000000
-0.005300  0.400000
-0.008300  0.100000
-0.009100  0.200000
-0.006800  0.100000
-0.005300  0.100000
-0.006800  0.100000
-0.014300  0.300000
-0.021800  0.100000
-0.019500  0.400000
-0.010500  0.200000
-0.002300  0.200000
0.009700  0.400000
0.019500  0.100000
0.024000  0.400000
0.022500  0.100000
0.015700  0.200000
0.009700  0.300000
0.000700  0.100000
-0.005300  0.400000
-0.001500  0.400000
0.003700  0.100000
0.006700  0.300000
0.007500  0.100000
0.004500  0.000000
-0.000800  0.500000
-0.000800  0.000000
-0.000800  0.400000
-0.004600  0.100000
-0.006000  0.200000
-0.002300  0.200000
-0.002300  0.100000
-0.002300  0.300000
0.005200  0.100000
0.012700  0.400000
0.014200  0.300000
0.004500  0.300000
-0.000800  0.300000
-0.001500  0.300000
-0.004600  0.000000
-0.011300  0.400000
-0.021000  0.100000
-0.026300  0.300000
-0.021000  0.300000
-0.014300  0.100000
-0.005300  0.400000
0.004500  0.000000
0.012000  0.400000
0.011200  0.100000
0.000700  0.400000
-0.001500  0.100000
-0.003000  0.100000
-0.006000  0.100000
0.003000  0.100000
0.010500  0.200000
0.013500  0.200000
0.017200  0.400000
0.012000  0.000000
0.000700  0.400000
-0.009800  0.000000
-0.018100  0.400000
-0.012800  0.100000
-0.006800  0.300000
-0.000800  0.200000
-0.001500  0.000000
-0.010500  0.400000
-0.018100  -0.100000
-0.021800  0.100000
-0.012800  0.000000
-0.001500  0.100000
0.007500  0.100000
0.014200  0.400000
0.012700  -0.100000
0.004500  0.100000
-0.012000  0.000000
-0.023300  0.100000
-0.023300  0.100000
-0.017300  -0.200000
-0.001500  0.400000
0.015700  -0.100000
0.023200  0.200000
0.025500  -0.200000
0.023200  0.200000
0.018000  -0.100000
0.014200  0.000000
0.005200  -0.100000
-0.001500  0.000000
-0.001500  -0.100000
-0.005300  0.000000
-0.008300  0.000000
-0.010500  -0.200000
-0.015000  0.100000
-0.012000  -0.200000
-0.010500  0.100000
-0.009800  -0.200000
-0.007500  -0.200000
-0.004600  0.000000
-0.003000  -0.200000
-0.004600  0.000000
-0.004600  -0.300000
-0.004600  0.000000
-0.003000  -0.100000
-0.002300  -0.100000
-0.001500  -0.400000
0.003000  0.000000
0.005200  -0.400000
0.003000  -0.100000
0.000700  -0.100000
0.000000  -0.300000
-0.000800  -0.100000
-0.004600  -0.300000
-0.015000  -0.100000
-0.015800  -0.300000
-0.010500  -0.200000
-0.010500  -0.200000
-0.004600  -0.300000
0.000700  -0.200000
0.001500  -0.300000
-0.006000  -0.300000
-0.008300  -0.200000
0.001500  -0.100000
0.006000  -0.500000
0.014200  0.000000
0.023200  -0.500000
0.032200  -0.300000
0.036700  -0.500000
0.039000  -0.400000
0.031500  -0.400000
0.012700  -0.500000
-0.000800  -0.400000
-0.008300  -0.500000
-0.012000  -0.400000
-0.013500  -0.400000
-0.012800  -0.500000
-0.011300  -0.300000
-0.009100  -0.200000
-0.008300  -0.500000
-0.006800  -0.500000
-0.004600  -0.400000
-0.008300  -0.800000
-0.010500  -0.200000
-0.011300  -0.800000
-0.009100  -0.400000
-0.005300  -0.700000
-0.005300  -0.500000
-0.003000  -0.500000
-0.005300  -0.600000
-0.012800  -0.600000
-0.023300  -0.600000
-0.026300  -0.500000
-0.016500  -0.600000
-0.012800  -0.400000
-0.004600  -0.700000
0.010500  -0.300000
0.019500  -0.700000
0.024000  -0.600000
0.023200  -0.600000
0.021700  -0.800000
0.016500  -0.400000
0.008200  -0.800000
0.005200  -0.400000
0.010500  -0.800000
0.012000  -0.700000
0.005200  -0.800000
0.003700  -0.800000
-0.000800  -0.700000
-0.005300  -0.700000
-0.004600  -0.700000
-0.006000  -0.800000
-0.009100  -0.600000
-0.012000  -0.900000
-0.008300  -0.500000
-0.004600  -1.000000
-0.003800  -0.500000
-0.004600  -0.900000
-0.008300  -0.800000
-0.006800  -0.800000
-0.006000  -1.000000
-0.009800  -0.700000
-0.010500  -0.700000
-0.009800  -0.900000
-0.012800  -0.800000
-0.022500  -0.700000
-0.024800  -0.900000
-0.020300  -0.900000
-0.017300  -0.900000
-0.004600  -0.700000
0.003700  -0.900000
0.003000  -1.100000
0.009000  -0.700000
0.012000  -1.100000
0.015700  -0.500000
0.019500  -1.000000
0.018000  -0.900000
0.012700  -1.000000
0.012700  -0.900000
0.011200  -1.000000
0.010500  -1.000000
0.012700  -1.100000
0.014200  -0.800000
0.014200  -0.900000
0.009700  -1.000000
0.008200  -0.900000
-0.000800  -1.000000
-0.014300  -0.800000
-0.018800  -1.100000
-0.018100  -0.900000
-0.015800  -1.000000
-0.014300  -1.000000
-0.012800  -0.900000
-0.010500  -1.200000
-0.009100  -1.000000
-0.000800  -1.000000
0.009700  -1.100000
0.008200  -1.000000
0.006700  -0.800000
0.009700  -1.300000
0.009000  -0.900000
0.009000  -1.200000
-0.003000  -1.100000
-0.018100  -1.000000
-0.021800  -1.400000
-0.018100  -1.000000
-0.014300  -1.300000
-0.006800  -1.100000
0.008200  -1.000000
0.020200  -1.300000
0.023200  -1.100000
0.018700  -1.100000
0.012700  -1.100000
0.002200  -1.000000
-0.009100  -1.000000
-0.009100  -1.200000
-0.003800  -1.000000
-0.001500  -1.400000
-0.005300  -0.900000
-0.008300  -1.300000
-0.012000  -1.100000
-0.014300  -1.200000
-0.012800  -1.300000
-0.018100  -1.000000
-0.023300  -1.400000
-0.019500  -1.100000
-0.009100  -1.200000
0.000700  -1.100000
0.010500  -1.200000
0.020200  -1.000000
0.028500  -1.400000
0.031500  -1.300000
0.027000  -1.400000
0.015000  -1.400000
0.003000  -1.000000
-0.005300  -1.400000
-0.009100  -1.000000
-0.006800  -1.500000
-0.006800  -1.200000
-0.008300  -1.400000
-0.003800  -1.400000
-0.001500  -1.300000
-0.006800  -1.100000
-0.011300  -1.300000
-0.011300  -1.400000
-0.009800  -1.200000
-0.010500  -1.500000
-0.017300  -1.200000
-0.023300  -1.400000
-0.018100  -1.200000
-0.012800  -1.400000
-0.007500  -1.400000
0.002200  -1.400000
0.011200  -1.500000
0.016500  -1.400000
0.018000  -1.700000
0.018000  -1.300000
0.014200  -1.400000
0.007500  -1.400000
0.005200  -1.400000
0.003000  -1.400000
0.000000  -1.600000
-0.004600  -1.400000
-0.002300  -1.400000
0.000700  -1.700000
0.003000  -1.200000
0.005200  -1.600000
-0.003800  -1.400000
-0.019500  -1.600000
-0.031500  -1.400000
-0.030000  -1.500000
-0.026300  -1.500000
-0.016500  -1.400000
-0.003000  -1.600000
0.009000  -1.600000
0.020200  -1.500000
0.021000  -1.500000
0.024000  -1.600000
0.031500  -1.400000
0.027700  -1.700000
0.012000  -1.500000
0.004500  -1.500000
-0.001500  -1.600000
-0.006800  -1.400000
-0.004600  -1.800000
-0.004600  -1.300000
-0.006800  -1.900000
-0.010500  -1.500000
-0.013500  -1.800000
-0.015800  -1.600000
-0.013500  -1.600000
-0.014300  -1.600000
-0.016500  -1.600000
-0.013500  -1.400000
-0.010500  -1.700000
-0.002300  -1.600000
0.006000  -1.400000
0.012700  -1.800000
0.021700  -1.600000
0.021000  -1.700000
0.016500  -1.700000
0.012000  -1.600000
0.000000  -1.800000
-0.012000  -1.500000
-0.014300  -1.800000
-0.009100  -1.600000
-0.005300  -1.700000
-0.006800  -1.600000
-0.006800  -1.700000
-0.009100  -1.500000
-0.014300  -2.000000
-0.012000  -1.500000
-0.005300  -1.800000
0.000700  -1.700000
0.004500  -1.500000
0.008200  -1.900000
0.015000  -1.600000
0.015000  -1.800000
0.017200  -1.600000
0.012000  -1.800000
0.000000  -1.700000
-0.000800  -1.600000
0.000700  -1.800000
0.001500  -1.800000
0.001500  -1.700000
-0.003000  -1.500000
-0.009100  -1.800000
-0.010500  -1.400000
-0.009800  -1.900000
-0.009800  -1.600000
-0.003000  -1.800000
-0.003000  -1.600000
-0.006000  -1.600000
-0.000800  -1.900000
0.003700  -1.700000
0.006700  -1.900000
0.010500  -1.600000
0.011200  -1.700000
0.019500  -1.800000
0.024700  -1.700000
0.018000  -1.700000
0.008200  -1.800000
-0.005300  -1.800000
-0.017300  -1.600000
-0.018100  -1.900000
-0.018100  -1.700000
-0.018800  -2.100000
-0.015800  -1.600000
-0.016500  -1.900000
-0.010500  -1.800000
-0.009800  -1.800000
-0.015800  -1.900000
-0.010500  -1.700000
-0.006800  -1.700000
-0.002300  -1.800000
0.006700  -1.900000
0.010500  -1.800000
0.015700  -2.000000
0.015700  -1.800000
0.009000  -1.900000
0.006700  -1.900000
-0.000800  -1.900000
-0.009100  -2.000000
-0.012000  -1.500000
-0.005300  -2.100000
-0.001500  -1.800000
-0.001500  -2.100000
-0.003000  -1.900000
-0.007500  -1.800000
-0.006000  -1.900000
-0.000800  -1.800000
0.000700  -1.800000
0.007500  -1.900000
0.012700  -2.100000
0.005200  -1.700000
-0.001500  -2.000000
-0.004600  -1.600000
-0.005300  -1.900000
-0.005300  -1.700000
-0.005300  -1.900000
-0.006000  -2.100000
-0.006800  -1.800000
-0.004600  -2.100000
-0.003000  -1.700000
-0.001500  -2.100000
0.001500  -2.000000
0.005200  -1.900000
0.006700  -1.900000
0.004500  -2.100000
0.006000  -1.900000
0.009000  -1.800000
0.003000  -2.000000
-0.001500  -1.800000
-0.001500  -2.100000
0.000000  -1.700000
0.005200  -2.000000
0.006000  -1.700000
0.003000  -2.000000
-0.005300  -1.900000
-0.015800  -2.000000
-0.015000  -2.200000
-0.012000  -1.900000
-0.012000  -1.900000
-0.004600  -1.900000
0.005200  -1.700000
0.009700  -1.800000
0.014200  -1.900000
0.016500  -1.800000
0.008200  -1.900000
-0.009100  -1.900000
-0.027000  -1.900000
-0.026300  -1.900000
-0.019500  -1.900000
-0.015800  -1.900000
-0.003800  -1.700000
0.009000  -2.100000
0.019500  -1.900000
0.023200  -1.900000
0.018700  -2.000000
0.009700  -1.900000
-0.006000  -1.700000
-0.016500  -2.200000
-0.012000  -1.800000
-0.000800  -1.900000
0.010500  -1.900000
0.019500  -1.800000
0.021000  -2.000000
0.018000  -1.800000
0.012700  -2.100000
0.004500  -1.800000
-0.005300  -1.900000
-0.018800  -1.900000
-0.023300  -1.900000
-0.018100  -1.800000
-0.015800  -1.900000
-0.015000  -1.800000
-0.012000  -2.100000
-0.009100  -1.900000
-0.004600  -1.900000
0.001500  -2.100000
0.001500  -1.800000
0.000700  -2.200000
0.003700  -1.800000
-0.000800  -2.000000
-0.009100  -1.700000
-0.009100  -2.000000
-0.005300  -1.900000
-0.002300  -1.800000
-0.000800  -2.000000
-0.001500  -2.000000
0.001500  -1.700000
0.004500  -2.000000
0.007500  -2.000000
0.012700  -1.700000
0.008200  -2.200000
0.002200  -1.600000
0.003000  -2.100000
0.001500  -1.800000
0.001500  -1.900000
0.007500  -1.900000
0.010500  -1.800000
0.008200  -2.000000
0.008200  -1.700000
0.005200  -2.000000
-0.001500  -1.900000
-0.008300  -1.800000
-0.015800  -1.800000
-0.015000  -1.900000
-0.011300  -1.700000
-0.006800  -1.900000
0.000000  -1.800000
0.002200  -1.900000
0.003000  -1.800000
-0.003800  -1.800000
-0.016500  -2.000000
-0.023300  -1.700000
-0.018100  -2.200000
-0.006000  -1.700000
0.001500  -2.100000
0.003000  -1.800000
0.009700  -1.800000
0.017200  -1.900000
0.021000  -1.900000
0.026200  -1.900000
0.024000  -2.000000
0.020200  -1.900000
0.015000  -1.800000
0.010500  -1.900000
0.005200  -1.600000
-0.004600  -1.800000
-0.014300  -1.800000
-0.018800  -1.900000
-0.024000  -2.100000
-0.033000  -1.800000
-0.030000  -2.100000
-0.024000  -1.600000
-0.015800  -1.900000
-0.003000  -1.800000
0.004500  -1.800000
0.010500  -1.800000
0.012700  -2.100000
0.013500  -1.600000
0.011200  -2.000000
0.003000  -1.700000
-0.006800  -1.900000
-0.012000  -1.900000
-0.008300  -1.800000
-0.009800  -1.900000
-0.008300  -1.700000
-0.006000  -2.000000
-0.005300  -1.900000
-0.001500  -1.800000
-0.003000  -2.000000
-0.001500  -2.000000
-0.000800  -1.900000
0.004500  -1.900000
0.009700  -1.800000
0.004500  -1.900000
-0.003800  -2.100000
-0.002300  -1.700000
0.001500  -2.100000
0.001500  -1.700000
0.000000  -2.100000
-0.002300  -2.000000
-0.003000  -1.900000
-0.002300  -2.100000
-0.003000  -1.800000
-0.003000  -1.900000
-0.000800  -1.900000
0.000700  -1.900000
0.000000  -2.000000
-0.002300  -1.900000
-0.004600  -1.700000
-0.001500  -2.200000
0.000700  -1.700000
-0.000800  -1.900000
-0.003800  -1.700000
-0.004600  -2.000000
-0.003000  -1.900000
0.002200  -1.800000
0.000000  -2.100000
-0.010500  -1.600000
-0.019500  -2.200000
-0.016500  -1.700000
-0.010500  -1.900000
-0.003800  -1.900000
0.013500  -1.900000
0.031500  -1.900000
0.036700  -1.900000
0.021700  -1.700000
-0.000800  -1.900000
-0.019500  -1.900000
-0.027800  -1.800000
-0.027000  -1.900000
-0.010500  -1.700000
0.013500  -1.900000
0.029200  -1.700000
0.038200  -1.900000
0.034500  -1.800000
0.027700  -1.800000
0.018000  -1.900000
0.003700  -1.900000
-0.012800  -1.800000
-0.018100  -1.900000
-0.015800  -1.800000
-0.014300  -1.900000
-0.009100  -2.000000
-0.007500  -1.900000
-0.006000  -2.000000
-0.009100  -1.800000
-0.012000  -2.000000
-0.015000  -1.800000
-0.016500  -1.800000
-0.012800  -1.900000
-0.011300  -1.700000
-0.006000  -2.000000
-0.003000  -1.800000
-0.003800  -1.900000
-0.004600  -1.900000
-0.003000  -1.800000
-0.000800  -1.800000
0.000700  -2.200000
0.000700  -1.600000
-0.000800  -2.100000
0.001500  -1.700000
0.004500  -1.900000
0.000700  -1.900000
-0.003000  -1.800000
-0.005300  -1.900000
-0.005300  -1.700000
-0.003000  -1.800000
-0.000800  -1.900000
0.001500  -1.800000
0.001500  -1.800000
-0.002300  -1.900000
-0.003000  -1.800000
-0.000800  -1.800000
0.001500  -1.800000
0.003700  -1.700000
0.003700  -2.100000
0.004500  -1.600000
0.004500  -2.200000
0.003000  -1.700000
0.003700  -2.000000
0.003700  -1.800000
0.001500  -1.800000
0.000000  -1.800000
0.000700  -1.700000
0.000700  -1.900000
-0.001500  -1.900000
-0.001500  -1.900000
-0.001500  -1.700000
0.000000  -2.100000
0.002200  -1.700000
0.001500  -1.800000
-0.000800  -1.900000
-0.001500  -1.900000
-0.003800  -2.000000
-0.012800  -1.600000
-0.016500  -2.100000
-0.014300  -1.600000
-0.009100  -1.900000
-0.003000  -1.700000
-0.003800  -1.900000
0.002200  -1.900000
0.008200  -1.800000
0.009700  -1.700000
0.015700  -1.800000
0.018700  -2.000000
0.021000  -1.500000
0.024000  -2.100000
0.020200  -1.700000
0.006700  -1.900000
-0.006800  -1.700000
-0.014300  -1.900000
-0.020300  -2.000000
-0.021000  -1.700000
-0.011300  -2.100000
-0.000800  -1.700000
0.007500  -2.000000
0.009000  -1.800000
0.009700  -1.800000
0.012000  -1.900000
0.004500  -1.800000
-0.006800  -1.800000
-0.009100  -1.900000
-0.010500  -2.000000
-0.011300  -1.700000
-0.011300  -2.100000
-0.014300  -1.700000
-0.015800  -2.100000
-0.016500  -1.800000
-0.009100  -2.000000
0.004500  -1.800000
0.009700  -1.800000
0.002200  -2.000000
-0.000800  -1.900000
-0.000800  -1.900000
-0.000800  -1.900000
-0.000800  -1.800000
-0.005300  -1.900000
-0.004600  -2.000000
-0.004600  -1.700000
-0.006800  -2.000000
-0.002300  -1.800000
-0.003000  -1.900000
-0.006800  -1.900000
-0.005300  -1.700000
-0.005300  -2.000000
-0.008300  -1.600000
-0.012000  -2.000000
-0.005300  -1.800000
0.006700  -1.800000
0.005200  -1.800000
0.005200  -2.000000
0.012000  -1.800000
0.014200  -2.000000
0.016500  -1.700000
0.024000  -1.900000
0.027000  -1.800000
0.019500  -1.800000
0.006700  -2.100000
-0.001500  -1.800000
-0.006800  -2.000000
-0.012000  -1.900000
-0.020300  -1.900000
-0.020300  -1.900000
-0.012800  -1.900000
-0.011300  -1.900000
-0.006000  -1.800000
0.000700  -1.900000
0.003000  -2.000000
0.003000  -1.900000
0.001500  -1.800000
0.000700  -2.200000
-0.003000  -1.600000
-0.005300  -2.100000
-0.005300  -1.600000
-0.004600  -2.100000
-0.006000  -1.900000
-0.005300  -2.000000
-0.004600  -1.900000
-0.004600  -1.800000
-0.006000  -2.100000
-0.009100  -2.000000
-0.003000  -1.900000
0.001500  -1.900000
0.006700  -2.000000
0.010500  -1.700000
0.007500  -2.100000
0.005200  -1.800000
0.004500  -2.100000
0.000000  -1.900000
-0.002300  -1.800000
-0.000800  -2.000000
-0.001500  -1.700000
-0.002300  -2.200000
-0.006000  -1.600000
-0.014300  -2.000000
-0.019500  -2.000000
-0.016500  -1.900000
-0.012000  -1.800000
-0.006000  -2.000000
0.002200  -1.900000
0.010500  -1.900000
0.014200  -2.000000
0.013500  -1.600000
0.014200  -2.100000
0.008200  -1.700000
-0.001500  -2.100000
0.000700  -1.800000
0.006700  -1.900000
0.003000  -1.900000
0.001500  -1.900000
0.001500  -2.000000
-0.000800  -1.800000
-0.001500  -1.900000
-0.006800  -1.900000
-0.007500  -1.900000
-0.006800  -1.800000
-0.004600  -2.100000
0.003000  -2.000000
0.000700  -2.000000
-0.003800  -1.900000
-0.016500  -1.900000
-0.027800  -2.100000
-0.034600  -1.800000
-0.032300  -2.200000
-0.018100  -1.700000
-0.003000  -2.300000
0.017200  -1.800000
0.035200  -1.900000
0.044200  -1.900000
0.049500  -1.900000
0.042000  -2.000000
0.027700  -2.200000
0.012000  -1.800000
0.000000  -1.900000
-0.012800  -2.100000
-0.015000  -1.800000
-0.018100  -2.000000
-0.019500  -1.800000
-0.012000  -1.900000
-0.006800  -1.900000
-0.000800  -2.000000
-0.000800  -1.900000
-0.005300  -1.900000
-0.010500  -2.100000
-0.015000  -2.100000
-0.011300  -2.000000
-0.008300  -1.900000
-0.007500  -2.100000
-0.005300  -1.700000
-0.004600  -2.100000
-0.003000  -1.700000
-0.003000  -2.200000
-0.003000  -1.800000
-0.004600  -2.200000
-0.005300  -2.000000
-0.006000  -1.800000
-0.001500  -2.200000
0.004500  -1.900000
0.009000  -2.000000
0.007500  -2.200000
-0.001500  -2.000000
-0.009100  -1.900000
-0.010500  -1.900000
-0.010500  -1.800000
-0.002300  -2.100000
0.009000  -1.800000
0.019500  -2.000000
0.021000  -1.900000
0.016500  -1.800000
0.019500  -2.100000
0.015700  -1.800000
0.002200  -2.100000
-0.008300  -1.700000
-0.010500  -2.300000
-0.010500  -1.900000
-0.012800  -2.000000
-0.011300  -1.900000
-0.006800  -1.900000
-0.003000  -2.000000
-0.003000  -2.000000
-0.002300  -2.100000
-0.011300  -1.800000
-0.020300  -2.200000
-0.016500  -1.900000
-0.008300  -2.200000
0.000700  -1.800000
0.000700  -2.200000
-0.001500  -1.900000
0.000000  -2.000000
0.009000  -2.100000
0.015700  -2.000000
0.015700  -2.200000
0.017200  -2.000000
0.015700  -2.100000
0.018000  -2.100000
0.017200  -2.000000
0.013500  -2.000000
0.006000  -2.200000
-0.006000  -2.000000
-0.012000  -2.300000
-0.015800  -2.000000
-0.015800  -2.200000
-0.015800  -2.000000
-0.015800  -2.100000
-0.012800  -2.200000
-0.009100  -1.900000
-0.010500  -2.300000
-0.013500  -1.900000
-0.014300  -2.200000
-0.012000  -2.100000
-0.009100  -1.900000
-0.008300  -1.900000
-0.005300  -2.300000
0.001500  -1.800000
0.004500  -2.300000
0.003700  -1.900000
0.004500  -2.300000
0.006000  -1.900000
0.010500  -2.100000
0.012000  -2.200000
0.005200  -2.100000
0.003000  -2.000000
0.001500  -1.900000
-0.001500  -2.200000
-0.001500  -2.100000
-0.003800  -2.100000
-0.006800  -2.200000
-0.006800  -2.300000
-0.012000  -1.800000
-0.012000  -2.300000
-0.004600  -1.900000
0.006000  -2.200000
0.014200  -2.100000
0.016500  -2.100000
0.013500  -2.200000
0.014200  -2.000000
0.014200  -2.200000
0.009000  -1.700000
-0.003000  -2.200000
-0.012800  -2.200000
-0.015800  -2.200000
-0.011300  -2.100000
-0.001500  -2.200000
0.006700  -2.000000
0.015700  -2.000000
0.012700  -2.000000
0.003000  -1.900000
0.001500  -2.200000
-0.001500  -1.800000
-0.004600  -2.200000
-0.005300  -1.900000
0.000000  -2.200000
0.000000  -2.000000
-0.005300  -2.200000
-0.010500  -2.200000
-0.012000  -2.200000
-0.004600  -2.100000
-0.000800  -2.000000
-0.006800  -2.100000
-0.012000  -2.100000
-0.016500  -2.200000
-0.025600  -2.000000
-0.027000  -2.200000
-0.021800  -2.000000
-0.014300  -2.100000
0.001500  -2.000000
0.015700  -1.900000
0.026200  -1.900000
0.027000  -1.800000
0.022500  -2.400000
0.020200  -1.800000
0.015700  -1.900000
0.006700  -2.100000
0.001500  -2.200000
-0.003800  -2.200000
-0.006000  -2.200000
-0.004600  -1.800000
-0.007500  -2.200000
-0.009100  -1.900000
-0.009100  -2.200000
-0.004600  -1.900000
-0.003000  -2.000000
-0.004600  -2.000000
-0.002300  -1.800000
-0.003000  -2.100000
-0.002300  -1.900000
-0.008300  -2.200000
-0.018100  -2.000000
-0.019500  -1.900000
-0.016500  -1.900000
-0.012000  -2.000000
0.002200  -1.800000
0.015700  -2.200000
0.024000  -1.800000
0.027000  -2.000000
0.023200  -1.900000
0.018000  -2.000000
0.003700  -2.100000
-0.015800  -1.900000
-0.032300  -2.200000
-0.033800  -1.700000
-0.027000  -2.200000
-0.022500  -1.900000
-0.012000  -2.000000
0.001500  -2.000000
0.012700  -2.000000
0.020200  -1.900000
0.027700  -2.100000
0.031500  -1.900000
0.027000  -1.900000
0.013500  -2.000000
0.001500  -1.800000
-0.001500  -2.100000
-0.008300  -1.800000
-0.010500  -2.200000
-0.009100  -1.800000
-0.010500  -2.200000
-0.006800  -1.900000
-0.005300  -1.900000
-0.003000  -1.900000
0.002200  -1.800000
0.006700  -2.000000
0.006700  -2.100000
-0.000800  -1.800000
-0.006000  -2.000000
-0.007500  -1.900000
-0.008300  -1.900000
-0.005300  -2.000000
-0.002300  -1.800000
0.003000  -2.000000
0.008200  -1.900000
0.005200  -1.900000
-0.003800  -1.800000
-0.015000  -1.900000
-0.023300  -2.100000
-0.024800  -2.000000
-0.018100  -1.900000
-0.008300  -1.900000
0.005200  -1.800000
0.018000  -1.800000
0.026200  -2.000000
0.025500  -1.700000
0.017200  -2.100000
0.008200  -1.600000
-0.003000  -2.200000
-0.013500  -1.700000
-0.015800  -2.000000
-0.012800  -1.800000
-0.012000  -1.900000
-0.008300  -1.800000
-0.000800  -1.700000
0.003700  -1.900000
0.003000  -1.800000
-0.001500  -1.900000
-0.001500  -1.900000
-0.004600  -2.200000
-0.005300  -1.500000
-0.003800  -1.900000
-0.003000  -1.700000
-0.007500  -1.900000
-0.015800  -1.600000
-0.014300  -1.900000
-0.006800  -1.900000
-0.002300  -1.800000
0.005200  -2.000000
0.014200  -1.600000
0.019500  -2.000000
0.021700  -1.900000
0.023200  -1.800000
0.016500  -1.900000
0.001500  -1.800000
-0.018800  -1.700000
-0.034600  -1.900000
-0.033000  -1.800000
-0.027000  -1.700000
-0.015800  -1.900000
0.000700  -1.600000
0.018000  -1.900000
0.030700  -1.600000
0.033000  -1.900000
0.031500  -1.700000
0.025500  -2.100000
0.009000  -1.800000
0.001500  -1.800000
0.005200  -1.800000
0.003000  -1.800000
-0.005300  -1.600000
-0.008300  -1.800000
-0.007500  -1.700000
-0.006800  -1.700000
-0.011300  -1.800000
-0.012800  -1.600000
-0.010500  -1.900000
-0.009100  -1.700000
-0.009100  -1.900000
-0.010500  -1.800000
-0.009100  -1.600000
-0.003000  -1.900000
0.000700  -1.600000
-0.000800  -1.800000
0.000700  -1.800000
0.002200  -1.700000
0.003700  -1.800000
0.004500  -2.000000
0.000700  -1.700000
-0.003000  -1.900000
-0.005300  -1.700000
-0.005300  -2.000000
-0.004600  -1.600000
-0.012800  -1.900000
-0.020300  -1.800000
-0.015800  -1.600000
-0.012000  -1.900000
-0.010500  -1.600000
-0.002300  -1.700000
0.009000  -1.800000
0.021000  -1.700000
0.023200  -1.900000
0.019500  -1.900000
0.013500  -1.500000
0.001500  -1.800000
-0.013500  -1.700000
-0.024000  -1.700000
-0.023300  -1.700000
-0.018100  -1.700000
-0.012800  -1.900000
-0.000800  -1.600000
0.011200  -2.000000
0.021700  -1.600000
0.034500  -1.900000
0.036700  -1.800000
0.028500  -1.800000
0.013500  -1.800000
-0.000800  -1.800000
-0.009800  -1.600000
-0.012800  -1.600000
-0.012000  -1.900000
-0.009100  -1.600000
-0.006800  -1.800000
-0.008300  -1.500000
-0.009100  -1.900000
-0.005300  -1.500000
-0.006000  -1.900000
-0.010500  -1.600000
-0.012800  -1.800000
-0.013500  -1.700000
-0.012800  -1.600000
-0.012000  -1.700000
-0.011300  -1.800000
-0.012000  -1.700000
-0.018800  -1.800000
-0.018800  -1.500000
-0.012000  -1.600000
-0.004600  -1.700000
0.006700  -1.500000
0.021700  -1.800000
0.033700  -1.400000
0.036700  -1.700000
0.030700  -1.600000
0.021000  -1.600000
0.007500  -1.800000
-0.005300  -1.500000
-0.009100  -1.600000
-0.006800  -1.700000
-0.009800  -1.600000
-0.009800  -1.700000
-0.009100  -1.800000
-0.008300  -1.400000
-0.006000  -1.800000
-0.005300  -1.400000
-0.001500  -1.800000
0.001500  -1.600000
0.000700  -1.600000
-0.000800  -1.500000
-0.000800  -1.400000
0.000700  -1.600000
0.000700  -1.400000
0.003000  -1.700000
0.004500  -1.700000
-0.000800  -1.500000
-0.003000  -1.600000
-0.004600  -1.600000
-0.005300  -1.300000
-0.006000  -1.600000
-0.010500  -1.400000
-0.015800  -1.600000
-0.017300  -1.500000
-0.015000  -1.500000
-0.009100  -1.700000
0.002200  -1.400000
0.008200  -1.900000
0.006700  -1.300000
0.009700  -1.800000
0.010500  -1.400000
0.010500  -1.400000
0.012000  -1.500000
0.009000  -1.600000
0.009000  -1.400000
0.010500  -1.500000
0.009000  -1.500000
0.006700  -1.300000
-0.001500  -1.600000
-0.008300  -1.300000
-0.012000  -1.700000
-0.008300  -1.400000
-0.004600  -1.600000
-0.005300  -1.600000
-0.005300  -1.400000
-0.006800  -1.600000
-0.007500  -1.400000
-0.010500  -1.600000
-0.011300  -1.500000
-0.006000  -1.600000
-0.001500  -1.600000
0.000000  -1.700000
0.001500  -1.400000
-0.001500  -1.500000
-0.003000  -1.500000
-0.003000  -1.400000
-0.005300  -1.600000
-0.001500  -1.400000
-0.003800  -1.700000
-0.004600  -1.200000
-0.005300  -1.700000
-0.012800  -1.300000
-0.012800  -1.600000
-0.016500  -1.500000
-0.020300  -1.600000
-0.011300  -1.500000
-0.001500  -1.500000
0.009000  -1.500000
0.022500  -1.400000
0.032200  -1.600000
0.035200  -1.400000
0.030700  -1.500000
0.024700  -1.400000
0.016500  -1.600000
0.003000  -1.400000
-0.009100  -1.500000
-0.014300  -1.800000
-0.012000  -1.400000
-0.012800  -1.700000
-0.012000  -1.500000
-0.015000  -1.400000
-0.016500  -1.500000
-0.014300  -1.500000
-0.012000  -1.400000
-0.005300  -1.600000
0.004500  -1.200000
0.008200  -1.800000
0.006000  -1.400000
0.001500  -1.400000
-0.005300  -1.500000
-0.010500  -1.300000
-0.018100  -1.600000
-0.019500  -1.200000
-0.016500  -1.600000
-0.023300  -1.500000
-0.018100  -1.400000
-0.000800  -1.400000
0.012700  -1.500000
0.027700  -1.300000
0.037500  -1.600000
0.035200  -1.400000
0.032200  -1.400000
0.024000  -1.600000
0.010500  -1.300000
0.004500  -1.600000
-0.003000  -1.200000
-0.012000  -1.600000
-0.011300  -1.300000
-0.009100  -1.500000
-0.010500  -1.400000
-0.011300  -1.400000
-0.007500  -1.500000
-0.006800  -1.400000
-0.007500  -1.600000
-0.005300  -1.600000
-0.003800  -1.600000
-0.005300  -1.300000
-0.008300  -1.700000
-0.006800  -1.300000
-0.008300  -1.700000
-0.007500  -1.600000
-0.006800  -1.400000
-0.004600  -1.600000
-0.003800  -1.400000
-0.005300  -1.700000
-0.004600  -1.400000
0.003700  -1.800000
0.010500  -1.500000
0.015700  -1.400000
0.015700  -1.600000
0.005200  -1.500000
-0.005300  -1.400000
-0.003000  -1.400000
0.001500  -1.800000
-0.001500  -1.300000
-0.001500  -1.800000
0.004500  -1.400000
0.010500  -1.700000
0.012700  -1.400000
0.010500  -1.700000
0.005200  -1.600000
-0.005300  -1.400000
-0.015800  -1.700000
-0.012800  -1.400000
-0.009800  -1.500000
-0.009100  -1.500000
-0.004600  -1.600000
-0.001500  -1.400000
0.004500  -1.700000
0.005200  -1.400000
-0.003000  -1.500000
-0.010500  -1.500000
-0.020300  -1.600000
-0.022500  -1.700000
-0.018100  -1.600000
-0.015800  -1.700000
-0.005300  -1.300000
0.006700  -1.700000
0.015700  -1.400000
0.020200  -1.600000
0.018700  -1.600000
0.015700  -1.600000
0.007500  -1.400000
-0.003800  -1.800000
-0.009100  -1.400000
-0.006800  -1.700000
-0.005300  -1.400000
0.002200  -1.600000
0.008200  -1.600000
0.014200  -1.500000
0.021000  -1.600000
0.014200  -1.500000
0.008200  -1.800000
-0.003000  -1.400000
-0.014300  -1.500000
-0.019500  -1.400000
-0.019500  -1.600000
-0.009100  -1.500000
-0.000800  -1.600000
0.006700  -1.500000
0.005200  -1.600000
0.001500  -1.600000
0.000700  -1.500000
-0.004600  -1.800000
-0.008300  -1.400000
-0.009100  -1.800000
-0.009100  -1.400000
-0.006800  -1.700000
-0.006000  -1.400000
-0.005300  -1.400000
-0.005300  -1.500000
-0.005300  -1.600000
-0.006800  -1.600000
-0.006800  -1.400000
-0.006000  -1.500000
-0.006800  -1.300000
-0.007500  -1.700000
-0.004600  -1.400000
-0.004600  -1.600000
0.000000  -1.400000
0.003000  -1.400000
0.003700  -1.500000
0.005200  -1.300000
0.005200  -1.600000
0.006700  -1.200000
0.007500  -1.700000
0.006700  -1.500000
0.003000  -1.500000
0.000700  -1.400000
0.001500  -1.400000
0.001500  -1.400000
-0.008300  -1.400000
-0.014300  -1.500000
-0.009800  -1.300000
-0.015800  -1.500000
-0.020300  -1.300000
-0.010500  -1.500000
0.001500  -1.200000
0.015700  -1.800000
0.025500  -1.400000
0.031500  -1.500000
0.034500  -1.600000
0.026200  -1.400000
0.021000  -1.400000
0.014200  -1.600000
0.000700  -1.500000
-0.012000  -1.400000
-0.015800  -1.500000
-0.012800  -1.400000
-0.014300  -1.700000
-0.012800  -1.400000
-0.010500  -1.600000
-0.016500  -1.600000
-0.019500  -1.400000
-0.016500  -1.600000
-0.014300  -1.400000
-0.006000  -1.700000
0.004500  -1.300000
0.012700  -1.500000
0.017200  -1.500000
0.019500  -1.400000
0.016500  -1.400000
0.006000  -1.800000
-0.004600  -1.400000
-0.010500  -1.800000
-0.008300  -1.400000
-0.006800  -1.600000
-0.005300  -1.600000
-0.005300  -1.600000
-0.008300  -1.600000
-0.007500  -1.400000
-0.004600  -1.600000
-0.001500  -1.500000
-0.000800  -1.500000
-0.000800  -1.500000
-0.004600  -1.500000
-0.004600  -1.500000
-0.004600  -1.500000
-0.006800  -1.500000
-0.008300  -1.500000
-0.009800  -1.700000
-0.009800  -1.400000
-0.009100  -1.800000
-0.004600  -1.300000
-0.000800  -1.600000
0.001500  -1.400000
0.000700  -1.500000
-0.002300  -1.600000
0.003000  -1.400000
0.007500  -1.500000
0.009700  -1.500000
0.011200  -1.500000
0.012000  -1.400000
0.012000  -1.400000
0.016500  -1.200000
0.018000  -1.600000
0.009000  -1.300000
-0.009800  -1.700000
-0.026300  -1.400000
-0.027800  -1.400000
-0.021800  -1.300000
-0.014300  -1.200000
-0.008300  -1.600000
-0.001500  -1.100000
0.008200  -1.500000
0.011200  -1.100000
0.018000  -1.300000
0.029200  -1.400000
0.020200  -1.500000
-0.001500  -1.400000
-0.012800  -1.400000
-0.011300  -1.600000
-0.014300  -1.300000
-0.013500  -1.600000
-0.000800  -1.300000
0.016500  -1.700000
0.024000  -1.400000
0.017200  -1.700000
0.012000  -1.500000
0.007500  -1.500000
-0.005300  -1.500000
-0.012800  -1.200000
-0.012000  -1.600000
-0.013500  -1.300000
-0.019500  -1.400000
-0.024800  -1.400000
-0.022500  -1.700000
-0.016500  -1.400000
-0.016500  -1.600000
-0.008300  -1.400000
0.005200  -1.600000
0.016500  -1.400000
0.021700  -1.400000
0.019500  -1.700000
0.017200  -1.400000
0.006000  -1.800000
-0.005300  -1.400000
-0.010500  -1.800000
-0.011300  -1.600000
-0.010500  -1.600000
-0.007500  -1.800000
-0.006000  -1.700000
-0.003000  -1.500000
-0.001500  -1.800000
-0.003000  -1.600000
-0.005300  -1.700000
-0.006000  -1.800000
-0.004600  -1.500000
-0.005300  -1.700000
-0.003000  -1.600000
0.000700  -1.800000
0.003700  -1.600000
0.006700  -1.700000
0.008200  -1.900000
0.006700  -1.800000
0.002200  -1.600000
-0.001500  -1.700000
-0.003800  -1.800000
-0.003000  -1.600000
0.000700  -1.800000
0.000700  -1.600000
0.003000  -2.100000
0.011200  -1.600000
0.009700  -2.000000
0.002200  -1.600000
-0.001500  -1.900000
-0.011300  -1.900000
-0.013500  -1.600000
-0.012800  -2.000000
-0.009800  -1.600000
0.001500  -1.900000
0.013500  -2.000000
0.022500  -1.900000
0.020200  -1.700000
0.012000  -2.100000
0.004500  -1.700000
-0.003800  -1.900000
-0.009100  -1.900000
-0.008300  -1.900000
-0.003800  -2.200000
-0.005300  -1.800000
-0.009800  -2.200000
-0.021800  -1.900000
-0.030800  -2.100000
-0.024000  -1.800000
-0.013500  -2.000000
-0.003800  -2.000000
0.000700  -1.900000
0.003000  -1.900000
0.006000  -2.000000
0.012700  -1.900000
0.012700  -1.900000
0.015700  -2.100000
0.019500  -1.900000
0.020200  -2.100000
0.024000  -1.800000
0.022500  -2.200000
0.021000  -1.900000
0.014200  -2.200000
0.000000  -2.000000
-0.007500  -2.000000
-0.009100  -2.200000
-0.007500  -2.200000
-0.010500  -2.000000
-0.012800  -2.000000
-0.013500  -2.200000
-0.014300  -2.000000
-0.013500  -2.400000
-0.012800  -2.300000
-0.010500  -2.200000
-0.009100  -2.300000
-0.006800  -2.300000
-0.004600  -2.300000
-0.000800  -2.200000
0.003700  -2.500000
0.004500  -2.200000
-0.002300  -2.600000
-0.008300  -2.300000
-0.008300  -2.300000
-0.006800  -2.300000
-0.003000  -2.500000
-0.003000  -2.200000
-0.000800  -2.500000
0.001500  -2.400000
0.001500  -2.500000
-0.000800  -2.400000
-0.000800  -2.400000
0.001500  -2.500000
0.000000  -2.100000
-0.001500  -2.500000
-0.003000  -2.300000
-0.001500  -2.400000
-0.001500  -2.500000
-0.003800  -2.100000
-0.012000  -2.500000
-0.018100  -2.500000
-0.015000  -2.600000
-0.010500  -2.300000
-0.001500  -2.500000
0.008200  -2.300000
0.018000  -2.700000
0.023200  -2.300000
0.020200  -2.600000
0.015700  -2.300000
0.006000  -2.500000
-0.001500  -2.400000
-0.008300  -2.300000
-0.007500  -2.600000
-0.001500  -2.300000
-0.000800  -2.500000
0.003000  -2.400000
0.004500  -2.300000
0.000700  -2.400000
-0.003000  -2.500000
-0.007500  -2.200000
-0.008300  -2.600000
-0.006800  -2.300000
-0.009100  -2.400000
-0.004600  -2.400000
0.000000  -2.300000
-0.000800  -2.600000
0.000700  -2.200000
0.003000  -2.700000
0.005200  -2.300000
-0.003000  -2.700000
-0.020300  -2.500000
-0.025600  -2.400000
-0.024000  -2.500000
-0.026300  -2.400000
-0.021800  -2.400000
-0.004600  -2.300000
0.012700  -2.800000
0.021700  -2.400000
0.030700  -2.600000
0.042000  -2.400000
0.042700  -2.500000
0.027700  -2.500000
0.015700  -2.400000
0.006000  -2.600000
-0.008300  -2.300000
-0.012800  -2.700000
-0.012800  -2.300000
-0.009100  -2.500000
-0.004600  -2.500000
-0.007500  -2.300000
-0.009100  -2.400000
-0.012000  -2.600000
-0.012000  -2.200000
-0.009100  -2.600000
-0.009100  -2.700000
-0.010500  -2.400000
-0.014300  -2.600000
-0.013500  -2.400000
-0.006800  -2.800000
-0.001500  -2.400000
0.001500  -2.700000
0.004500  -2.300000
0.006000  -2.500000
0.004500  -2.500000
0.004500  -2.600000
0.009000  -2.500000
0.016500  -2.700000
0.022500  -2.300000
0.018700  -2.700000
0.012000  -2.700000
0.003000  -2.600000
-0.004600  -2.700000
-0.011300  -2.500000
-0.010500  -2.800000
-0.004600  -2.600000
-0.004600  -2.600000
-0.009100  -2.600000
-0.014300  -2.600000
-0.015800  -2.800000
-0.012000  -2.700000
-0.006800  -2.500000
-0.005300  -2.500000
-0.005300  -2.600000
-0.003800  -2.600000
-0.005300  -2.700000
-0.004600  -2.500000
-0.005300  -2.900000
-0.006000  -2.500000
-0.004600  -2.800000
-0.006000  -2.500000
-0.004600  -2.600000
-0.003000  -2.600000
-0.003800  -2.600000
0.000700  -2.900000
0.009000  -2.700000
0.012700  -2.700000
0.012000  -2.700000
0.012700  -2.600000
0.012700  -2.400000
0.009000  -2.800000
0.002200  -2.500000
-0.001500  -2.800000
-0.006800  -2.600000
-0.012000  -2.700000
-0.010500  -2.800000
-0.008300  -2.400000
-0.011300  -2.900000
-0.018800  -2.500000
-0.014300  -2.800000
-0.006800  -2.700000
-0.000800  -2.800000
0.015700  -2.800000
0.034500  -2.600000
0.043500  -2.800000
0.035200  -2.700000
0.024000  -2.800000
0.017200  -2.400000
0.003700  -2.700000
-0.011300  -2.400000
-0.016500  -2.800000
-0.023300  -2.400000
-0.030800  -2.700000
-0.023300  -2.300000
-0.015000  -2.400000
-0.012000  -2.400000
-0.014300  -2.300000
-0.015000  -2.300000
-0.006800  -2.200000
0.001500  -2.100000
0.006700  -2.100000
0.016500  -2.000000
0.020200  -1.900000
0.018700  -2.200000
0.016500  -1.900000
0.009000  -2.000000
0.003000  -1.900000
-0.004600  -1.700000
-0.012800  -2.100000
-0.021000  -1.600000
-0.020300  -1.800000
-0.018800  -1.400000
-0.015800  -1.800000
-0.009100  -1.600000
-0.009100  -1.700000
-0.012000  -1.700000
-0.012000  -1.600000
-0.006800  -1.500000
-0.004600  -1.600000
0.000700  -1.500000
0.005200  -1.600000
0.003000  -1.600000
0.004500  -1.500000
0.003000  -1.700000
0.001500  -1.500000
0.001500  -1.700000
0.004500  -1.700000
0.005200  -1.600000
0.003000  -1.700000
0.006000  -1.700000
0.007500  -1.800000
0.003700  -1.700000
-0.000800  -1.800000
-0.003000  -1.600000
0.001500  -1.800000
0.007500  -1.400000
0.011200  -1.900000
0.009000  -1.600000
0.003000  -1.900000
0.002200  -1.600000
0.003700  -1.800000
0.004500  -1.800000
0.000700  -1.700000
-0.005300  -1.800000
-0.008300  -1.500000
-0.005300  -1.800000
-0.003000  -1.600000
-0.006800  -1.600000
-0.007500  -1.600000
-0.000800  -1.900000
-0.000800  -1.400000
-0.003800  -1.700000
-0.003000  -1.500000
-0.007500  -1.600000
-0.016500  -1.600000
-0.023300  -1.400000
-0.020300  -1.900000
-0.016500  -1.400000
-0.009100  -1.800000
0.001500  -1.500000
0.012700  -1.600000
0.023200  -1.600000
0.025500  -1.600000
0.024700  -1.500000
0.023200  -1.400000
0.010500  -1.500000
-0.001500  -1.400000
-0.005300  -1.700000
-0.004600  -1.300000
-0.004600  -1.600000
-0.006800  -1.400000
-0.010500  -1.500000
-0.012800  -1.400000
-0.009800  -1.400000
-0.003000  -1.500000
0.001500  -1.200000
0.005200  -1.600000
0.005200  -1.400000
0.003000  -1.400000
-0.000800  -1.400000
-0.008300  -1.600000
-0.013500  -1.400000
-0.012800  -1.400000
-0.012800  -1.400000
-0.009100  -1.300000
0.001500  -1.400000
0.008200  -1.200000
0.012700  -1.500000
0.012000  -1.000000
0.011200  -1.600000
0.008200  -1.100000
0.002200  -1.400000
-0.000800  -1.300000
-0.000800  -1.400000
-0.001500  -1.500000
-0.004600  -1.400000
-0.006000  -1.100000
-0.006800  -1.400000
-0.007500  -1.300000
-0.006000  -1.400000
-0.005300  -1.400000
-0.005300  -1.200000
-0.003800  -1.500000
-0.004600  -1.400000
-0.004600  -1.300000
-0.004600  -1.400000
-0.006000  -1.000000
-0.002300  -1.400000
0.002200  -1.100000
0.003700  -1.400000
0.003000  -1.000000
0.000700  -1.300000
0.000700  -1.100000
-0.000800  -1.500000
-0.002300  -1.000000
-0.001500  -1.600000
0.000000  -1.000000
0.000700  -1.400000
0.000000  -1.100000
-0.000800  -1.200000
0.000000  -1.300000
0.003000  -1.200000
0.003000  -1.400000
0.003000  -1.100000
0.005200  -1.100000
0.006700  -1.100000
0.006700  -1.200000
0.006700  -1.200000
0.003700  -1.200000
0.000700  -1.000000
-0.003000  -1.100000
-0.004600  -1.200000
-0.000800  -1.000000
0.000700  -1.400000
-0.003000  -0.800000
-0.009100  -1.200000
-0.009800  -0.900000
-0.012000  -1.100000
-0.018800  -1.000000
-0.016500  -1.000000
-0.010500  -1.200000
-0.005300  -1.000000
0.004500  -0.800000
0.015000  -1.000000
0.026200  -1.000000
0.029200  -0.800000
0.021700  -1.000000
0.010500  -0.900000
-0.002300  -1.000000
-0.011300  -0.900000
-0.014300  -0.900000
-0.010500  -1.000000
-0.008300  -0.900000
-0.006800  -1.100000
-0.008300  -0.600000
-0.008300  -1.000000
-0.006800  -0.900000
-0.009800  -0.800000
-0.007500  -0.800000
-0.005300  -0.900000
-0.004600  -0.800000
-0.005300  -0.700000
-0.003000  -1.000000
-0.005300  -0.500000
-0.007500  -1.000000
-0.003800  -0.500000
-0.004600  -1.000000
-0.006000  -0.600000
-0.002300  -0.900000
0.000700  -0.800000
0.004500  -0.700000
0.008200  -1.000000
0.008200  -0.800000
0.008200  -0.800000
0.008200  -0.800000
0.006700  -0.800000
0.002200  -0.700000
-0.009800  -0.900000
-0.019500  -0.800000
-0.018100  -0.900000
-0.012800  -0.900000
-0.005300  -0.600000
0.003700  -1.000000
0.016500  -0.600000
0.025500  -1.100000
0.026200  -0.500000
0.024000  -0.900000
0.017200  -0.500000
0.008200  -0.700000
-0.006800  -0.800000
-0.014300  -0.700000
-0.012000  -0.900000
-0.011300  -1.000000
-0.012000  -0.800000
-0.009100  -0.800000
-0.003000  -0.800000
-0.002300  -0.600000
-0.001500  -0.900000
0.000700  -0.600000
0.003000  -0.600000
0.000700  -0.900000
-0.003000  -0.700000
-0.000800  -0.900000
0.000000  -0.500000
-0.001500  -0.900000
-0.004600  -0.800000
-0.000800  -0.700000
0.001500  -0.700000
0.000700  -0.900000
0.000000  -0.600000
-0.003000  -1.000000
-0.004600  -0.400000
-0.003000  -0.900000
-0.003000  -0.500000
-0.003000  -0.800000
-0.003000  -0.600000
-0.006800  -0.600000
-0.005300  -0.800000
-0.001500  -0.600000
0.000000  -0.700000
0.000700  -0.500000
0.000700  -0.700000
-0.000800  -0.700000
-0.000800  -0.600000
-0.000800  -0.400000
-0.003800  -0.600000
-0.002300  -0.800000
0.000700  -0.500000
0.000700  -0.800000
0.001500  -0.500000
-0.001500  -0.900000
-0.008300  -0.400000
-0.012800  -0.800000
-0.010500  -0.600000
-0.005300  -0.700000
-0.001500  -0.600000
0.006700  -0.700000
0.015700  -0.800000
0.023200  -0.700000
0.024000  -0.600000
0.019500  -0.500000
0.009700  -0.800000
-0.002300  -0.400000
-0.012000  -0.800000
-0.014300  -0.500000
-0.006800  -0.700000
-0.006000  -0.500000
-0.008300  -0.500000
-0.009800  -0.800000
-0.010500  -0.400000
-0.008300  -0.800000
-0.006000  -0.500000
-0.005300  -0.500000
-0.005300  -0.800000
-0.005300  -0.700000
-0.005300  -0.500000
-0.004600  -0.500000
-0.001500  -0.700000
0.000700  -0.500000
0.002200  -0.800000
0.000000  -0.400000
-0.000800  -0.800000
-0.000800  -0.400000
-0.003000  -0.700000
-0.004600  -0.600000
-0.003000  -0.700000
-0.001500  -0.800000
-0.003000  -0.500000
-0.002300  -0.500000
-0.002300  -0.500000
-0.003000  -0.600000
-0.001500  -0.500000
-0.003000  -0.800000
-0.004600  -0.600000
-0.003000  -0.800000
-0.002300  -0.600000
0.000700  -0.700000
0.000700  -0.600000
-0.000800  -0.500000
-0.003800  -0.900000
-0.005300  -0.500000
-0.003800  -0.900000
-0.001500  -0.500000
0.006700  -0.800000
0.010500  -0.600000
0.009000  -0.800000
0.005200  -0.800000
0.004500  -0.800000
0.007500  -0.600000
0.010500  -0.700000
0.007500  -0.700000
0.001500  -0.600000
-0.001500  -0.800000
-0.001500  -0.600000
-0.003000  -0.800000
-0.003000  -0.700000
-0.003800  -0.600000
-0.003800  -0.800000
-0.004600  -0.600000
-0.005300  -1.000000
-0.003800  -0.800000
-0.000800  -0.800000
0.001500  -0.700000
-0.003000  -0.900000
-0.024000  -0.600000
-0.038300  -0.900000
-0.033800  -0.700000
-0.024800  -1.000000
-0.006800  -0.900000
0.016500  -0.900000
0.036000  -0.900000
0.048000  -0.900000
0.051700  -1.000000
0.042000  -0.900000
0.027700  -1.000000
0.013500  -0.900000
-0.001500  -1.100000
-0.006800  -1.100000
-0.009800  -1.000000
-0.012000  -0.900000
-0.012800  -1.100000
-0.015800  -0.900000
-0.014300  -1.000000
-0.014300  -1.300000
-0.012800  -1.100000
-0.011300  -1.400000
-0.012800  -0.900000
-0.006800  -1.300000
-0.001500  -1.100000
0.000700  -1.300000
0.000700  -1.200000
-0.001500  -1.300000
-0.008300  -1.400000
-0.012000  -1.200000
-0.012000  -1.300000
-0.011300  -1.400000
-0.008300  -1.600000
-0.006800  -1.200000
-0.001500  -1.600000
0.006700  -1.300000
0.011200  -1.500000
0.012000  -1.500000
0.012000  -1.400000
0.008200  -1.500000
0.004500  -1.400000
0.000700  -1.700000
-0.003800  -1.500000
-0.004600  -1.600000
-0.006800  -1.600000
-0.005300  -1.600000
-0.003000  -1.600000
-0.003800  -1.700000
-0.003000  -1.700000
-0.003800  -1.600000
-0.002300  -1.800000
-0.003800  -1.600000
-0.001500  -1.900000
-0.003800  -1.500000
-0.004600  -1.800000
-0.000800  -1.900000
-0.000800  -1.800000
0.000700  -1.900000
-0.000800  -1.900000
0.000700  -2.200000
0.000000  -2.000000
-0.001500  -1.900000
-0.000800  -2.000000
-0.001500  -2.000000
-0.006800  -2.000000
-0.014300  -2.300000
-0.010500  -2.100000
-0.001500  -2.300000
0.003000  -2.400000
0.008200  -2.100000
0.011200  -2.400000
0.018000  -2.000000
0.019500  -2.400000
0.017200  -2.100000
0.012700  -2.500000
0.002200  -2.400000
-0.009100  -2.400000
-0.015800  -2.500000
-0.013500  -2.500000
-0.010500  -2.400000
-0.010500  -2.500000
-0.009100  -2.600000
-0.006800  -2.500000
-0.006000  -2.700000
-0.004600  -2.500000
-0.004600  -2.500000
-0.004600  -2.500000
-0.002300  -2.500000
-0.001500  -2.700000
-0.000800  -2.600000
-0.000800  -3.000000
-0.001500  -2.700000
-0.002300  -2.700000
-0.006000  -2.800000
-0.006800  -2.800000
-0.005300  -2.700000
-0.003000  -3.000000
0.000000  -2.600000
-0.000800  -3.100000
0.000700  -2.900000
0.001500  -2.800000
-0.001500  -3.000000
-0.000800  -2.800000
0.002200  -3.200000
0.005200  -2.900000
0.009700  -3.100000
0.009700  -3.100000
0.009000  -3.000000
0.003700  -3.100000
0.002200  -3.300000
0.001500  -3.100000
-0.000800  -3.100000
0.001500  -3.300000
-0.000800  -3.000000
-0.004600  -3.300000
-0.002300  -3.000000
0.001500  -3.600000
0.006700  -3.100000
0.008200  -3.400000
0.002200  -3.400000
0.000700  -3.300000
-0.000800  -3.400000
-0.000800  -3.200000
-0.000800  -3.400000
0.001500  -3.400000
0.004500  -3.400000
0.006700  -3.500000
0.008200  -3.600000
0.003000  -3.300000
-0.000800  -3.700000
-0.003000  -3.400000
-0.003800  -3.600000
-0.002300  -3.600000
-0.001500  -3.500000
-0.005300  -3.600000
-0.007500  -3.400000
-0.008300  -3.800000
-0.006000  -3.400000
-0.004600  -3.800000
-0.005300  -3.600000
-0.005300  -3.800000
-0.002300  -3.800000
-0.001500  -3.800000
-0.003000  -3.800000
-0.004600  -3.800000
-0.002300  -4.000000
-0.001500  -3.600000
-0.003000  -4.200000
-0.005300  -3.800000
-0.006800  -4.000000
-0.005300  -3.900000
-0.001500  -4.000000
0.002200  -4.100000
0.001500  -4.000000
-0.003800  -4.100000
-0.006800  -4.100000
-0.004600  -4.000000
-0.003000  -4.000000
-0.001500  -4.200000
-0.001500  -4.100000
-0.003000  -4.300000
-0.002300  -4.200000
-0.003000  -4.300000
-0.003000  -4.500000
0.000700  -4.200000
0.003000  -4.500000
0.003700  -4.100000
0.001500  -4.600000
0.000000  -4.300000
0.003000  -4.600000
0.006000  -4.400000
0.006700  -4.500000
0.001500  -4.500000
-0.000800  -4.600000
0.000700  -4.500000
-0.000800  -4.700000
-0.001500  -4.500000
-0.000800  -4.600000
-0.001500  -4.800000
-0.004600  -4.700000
-0.003000  -4.800000
-0.002300  -4.700000
-0.004600  -5.000000
-0.006800  -5.000000
-0.005300  -4.800000
-0.004600  -5.000000
-0.003000  -4.900000
0.003000  -5.000000
0.001500  -5.000000
0.001500  -4.900000
0.001500  -5.100000
-0.000800  -5.100000
-0.002300  -5.000000
-0.003800  -5.400000
-0.003000  -5.000000
-0.000800  -5.400000
0.003000  -5.100000
0.003700  -5.300000
-0.000800  -5.300000
-0.002300  -5.400000
-0.003000  -5.400000
-0.004600  -5.200000
-0.003800  -5.700000
-0.003800  -5.400000
-0.002300  -5.600000
0.000000  -5.600000
0.001500  -5.600000
0.002200  -5.600000
0.000700  -5.700000
-0.000800  -5.800000
-0.003000  -5.600000
-0.003800  -5.800000
-0.003000  -5.500000
-0.002300  -6.000000
-0.003800  -5.600000
-0.003000  -5.900000
-0.001500  -5.900000
-0.001500  -5.900000
-0.001500  -6.000000
-0.004600  -6.000000
-0.004600  -5.900000
0.000000  -6.100000
0.000000  -6.000000
-0.000800  -5.700000
0.000000  -6.300000
0.002200  -5.900000
0.005200  -6.300000
0.003000  -6.200000
-0.001500  -6.100000
-0.004600  -6.300000
-0.001500  -6.200000
0.004500  -6.500000
0.005200  -6.200000
0.001500  -6.600000
-0.000800  -6.400000
0.000000  -6.600000
-0.003000  -6.700000
-0.003000  -6.600000
-0.001500  -6.700000
-0.004600  -6.600000
-0.004600  -6.900000
-0.001500  -6.700000
-0.003000  -7.000000
-0.003000  -6.600000
-0.000800  -7.200000
-0.000800  -6.900000
0.000700  -7.000000
0.000000  -7.100000
0.001500  -7.000000
0.003000  -7.300000
0.001500  -7.100000
0.002200  -7.200000
0.000000  -7.300000
-0.003000  -7.400000
-0.003000  -7.500000
-0.001500  -7.500000
-0.000800  -7.300000
-0.000800  -7.700000
0.000000  -7.600000
0.002200  -7.700000
0.003000  -7.800000
0.000700  -7.700000
-0.002300  -8.000000
-0.004600  -7.800000
-0.003000  -8.200000
-0.000800  -7.700000
0.000000  -8.200000
0.000000  -8.300000
-0.000800  -8.300000
-0.000800  -8.300000
0.000700  -8.400000
0.000700  -8.400000
-0.001500  -8.600000
-0.006000  -8.800000
-0.006800  -8.600000
-0.004600  -8.900000
-0.000800  -8.700000
0.006000  -9.000000
0.008200  -9.000000
0.004500  -9.000000
-0.001500  -9.200000
-0.003000  -9.100000
-0.004600  -9.500000
-0.003800  -9.500000
-0.005300  -9.500000
-0.005300  -9.500000
-0.001500  -9.700000
-0.001500  -9.600000
-0.001500  -10.000000
-0.001500  -9.700000
-0.001500  -10.100000
-0.003000  -10.000000
-0.003000  -10.300000
-0.004600  -10.300000
-0.005300  -10.400000
-0.003800  -10.600000
-0.003000  -10.300000
-0.004600  -10.700000
-0.004600  -10.700000
-0.001500  -10.900000
0.000700  -11.000000
0.005200  -11.000000
0.006700  -11.100000
0.003000  -11.400000
0.000000  -11.300000
0.000700  -11.300000
0.001500  -11.700000
0.001500  -11.400000
0.003000  -12.000000
-0.000800  -11.700000
-0.003000  -12.200000
-0.003800  -12.100000
-0.007500  -12.200000
-0.010500  -12.600000
-0.004600  -12.500000
0.002200  -12.700000
0.001500  -12.700000
-0.000800  -12.900000
0.001500  -13.000000
0.000700  -13.300000
-0.003000  -13.000000
-0.004600  -13.500000
-0.004600  -13.500000
-0.002300  -13.700000
-0.001500  -13.800000
-0.003800  -13.800000
-0.003800  -14.100000
-0.003000  -14.000000
-0.001500  -14.600000
0.000000  -14.200000
-0.001500  -14.500000
-0.003800  -14.600000
-0.001500  -14.700000
0.000000  -14.900000
-0.001500  -14.900000
-0.000800  -15.300000
0.001500  -15.100000
0.000700  -15.700000
0.000000  -15.300000
0.000700  -15.900000
0.002200  -15.800000
0.003000  -16.100000
0.003000  -16.200000
0.004500  -16.200000
0.001500  -16.500000
-0.003800  -16.400000
-0.004600  -16.700000
-0.003800  -16.700000
-0.005300  -16.700000
-0.004600  -17.000000
-0.003800  -17.200000
-0.006800  -17.300000
-0.006800  -17.600000
-0.002300  -17.600000
0.001500  -17.700000
0.003000  -18.000000
0.003000  -17.800000
0.001500  -18.300000
0.001500  -18.100000
0.001500  -18.700000
0.002200  -18.500000
0.001500  -18.700000
-0.000800  -19.000000
-0.001500  -18.900000
-0.001500  -19.200000
-0.002300  -19.100000
-0.001500  -19.400000
-0.003000  -19.500000
-0.003000  -19.900000
-0.001500  -19.800000
-0.000800  -20.100000
0.000000  -20.100000
0.001500  -20.100000
0.000700  -20.400000
0.000700  -20.400000
0.002200  -20.800000
0.000700  -20.700000
0.000700  -21.200000
-0.000800  -21.100000
-0.002300  -21.300000
0.000700  -21.300000
0.000700  -21.400000
0.000700  -21.400000
0.000000  -21.800000
-0.000800  -21.800000
-0.000800  -22.100000
0.001500  -22.200000
0.001500  -22.200000
0.000000  -22.500000
-0.003000  -22.500000
-0.003000  -22.900000
-0.000800  -22.900000
-0.000800  -23.000000
-0.002300  -23.200000
-0.003000  -23.300000
-0.001500  -23.600000
-0.001500  -23.800000
-0.004600  -23.800000
-0.004600  -23.800000
-0.001500  -24.300000
-0.003800  -24.000000
-0.003800  -24.500000
-0.003000  -24.400000
-0.004600  -24.900000
-0.006800  -24.700000
-0.005300  -25.000000
-0.002300  -25.200000
0.001500  -25.300000
0.002200  -25.600000
0.000700  -25.500000
0.000700  -25.700000
0.000700  -25.800000
0.002200  -25.900000
0.001500  -26.200000
0.001500  -26.500000
0.003000  -26.200000
0.002200  -26.800000
0.000700  -26.800000
-0.003000  -26.900000
-0.003800  -27.100000
-0.003000  -27.000000
-0.001500  -27.600000
0.000700  -27.400000
0.003000  -27.900000
0.004500  -27.700000
0.003000  -28.000000
-0.002300  -28.300000
-0.003000  -28.300000
-0.003000  -28.400000
-0.000800  -28.600000
-0.003000  -28.900000
-0.003800  -28.800000
-0.003000  -29.400000
-0.006000  -29.000000
-0.005300  -29.500000
-0.004600  -29.500000
-0.006000  -29.800000
-0.004600  -29.800000
-0.003000  -30.000000
-0.001500  -30.300000
-0.002300  -30.200000
-0.002300  -30.600000
0.000700  -30.700000
0.003000  -30.600000
0.003700  -30.900000
0.003000  -31.100000
0.000000  -31.100000
-0.001500  -31.500000
0.000000  -31.500000
0.004500  -31.700000
0.006700  -32.000000
0.003700  -31.800000
-0.000800  -32.100000
-0.001500  -32.000000
0.001500  -32.500000
0.003000  -32.400000
0.003700  -32.700000
0.001500  -32.700000
0.001500  -32.900000
0.000700  -33.200000
0.000700  -33.400000
0.001500  -33.400000
-0.004600  -33.600000
-0.006000  -33.800000
-0.006000  -33.900000
-0.005300  -34.400000
-0.004600  -34.200000
-0.005300  -34.400000
-0.004600  -34.700000
-0.004600  -34.400000
-0.002300  -35.000000
0.000000  -34.800000
0.000000  -35.400000
-0.001500  -35.100000
-0.003800  -35.400000
-0.004600  -35.500000
-0.001500  -35.600000
0.000700  -35.700000
-0.001500  -36.200000
-0.003000  -36.000000
-0.000800  -36.100000
-0.005300  -36.400000
-0.006800  -36.400000
-0.001500  -36.900000
-0.001500  -36.600000
-0.003000  -37.000000
-0.001500  -37.000000
0.000000  -37.100000
0.002200  -37.500000
0.003000  -37.200000
0.000700  -37.700000
-0.003000  -37.800000
0.000700  -38.100000
0.003700  -38.200000
0.003000  -38.300000
0.002200  -38.100000
0.003000  -38.700000
0.006000  -38.300000
0.006000  -39.000000
0.001500  -38.900000
-0.002300  -39.100000
-0.001500  -39.200000
0.001500  -39.200000
0.001500  -39.500000
0.003000  -39.500000
0.003000  -39.700000
0.000700  -39.800000
-0.000800  -40.000000
0.000700  -40.100000
0.000000  -40.400000
-0.001500  -40.400000
0.000000  -40.500000
-0.000800  -40.800000
-0.000800  -40.500000
0.000700  -41.000000
-0.001500  -40.900000
-0.004600  -41.500000
-0.006800  -41.000000
-0.006000  -41.500000
-0.005300  -41.500000
-0.006000  -41.700000
-0.003000  -42.100000
-0.000800  -42.100000
0.002200  -42.300000
0.002200  -42.200000
-0.001500  -42.500000
-0.003000  -42.400000
-0.006800  -42.800000
-0.009800  -42.700000
-0.006000  -43.000000
-0.004600  -43.000000
-0.004600  -43.200000
-0.006800  -43.500000
-0.005300  -43.500000
0.002200  -43.700000
0.003000  -43.400000
0.003000  -44.100000
-0.000800  -44.000000
-0.002300  -44.100000
0.000700  -44.200000
0.003700  -44.400000
0.004500  -44.600000
0.003000  -44.700000
0.001500  -44.800000
-0.001500  -44.900000
0.000000  -45.300000
0.000700  -45.000000
-0.001500  -45.700000
-0.003000  -45.300000
-0.003800  -45.900000
-0.001500  -45.700000
0.000000  -45.900000
-0.000800  -46.300000
-0.001500  -46.000000
-0.001500  -46.400000
-0.002300  -46.500000
-0.001500  -46.500000
-0.000800  -46.600000
-0.000800  -46.800000
-0.000800  -46.800000
-0.001500  -47.200000
-0.001500  -47.300000
-0.000800  -47.300000
-0.000800  -47.600000
-0.003000  -47.500000
-0.003000  -47.800000
-0.003000  -47.600000
0.000700  -48.200000
0.000700  -48.100000
-0.003000  -48.300000
-0.003000  -48.300000
-0.000800  -48.600000
0.001500  -48.600000
0.000700  -49.000000
0.001500  -48.900000
0.000700  -49.100000
-0.000800  -49.100000
0.002200  -49.400000
0.000700  -49.400000
-0.000800  -49.400000
-0.000800  -49.900000
0.001500  -49.800000
0.002200  -50.000000
0.000000  -50.200000
0.000700  -50.200000
0.000000  -50.500000
0.000700  -50.600000
0.000000  -50.700000
-0.000800  -50.800000
-0.000800  -51.000000
-0.001500  -51.100000
-0.002300  -51.400000
-0.003000  -51.100000
-0.002300  -51.700000
-0.001500  -51.400000
-0.001500  -51.900000
-0.003800  -51.900000
-0.005300  -52.100000
-0.003800  -52.200000
-0.003000  -52.100000
-0.000800  -52.700000
0.000000  -52.700000
0.000700  -52.800000
0.000000  -53.000000
0.000700  -53.200000
0.000700  -53.000000
-0.002300  -53.500000
-0.003000  -53.500000
-0.001500  -53.700000
-0.001500  -53.900000
0.000700  -54.000000
0.000700  -54.400000
0.001500  -54.200000
-0.000800  -54.600000
-0.006000  -54.500000
-0.005300  -54.800000
-0.002300  -54.900000
0.000000  -54.900000
0.000000  -55.100000
-0.000800  -55.400000
-0.000800  -55.400000
0.000700  -55.500000
0.003000  -55.800000
0.001500  -55.700000
0.001500  -56.100000
0.002200  -56.000000
0.003700  -56.200000
0.003000  -56.500000
0.003000  -56.400000
0.000700  -56.700000
-0.000800  -56.600000
0.003000  -57.100000
0.002200  -56.900000
0.001500  -57.300000
0.000000  -57.300000
-0.001500  -57.600000
0.000700  -57.700000
0.000000  -57.900000
-0.001500  -57.900000
-0.004600  -58.000000
-0.004600  -58.300000
-0.000800  -58.300000
-0.000800  -58.700000
-0.001500  -58.500000
-0.006800  -58.900000
-0.004600  -59.000000
-0.002300  -59.000000
-0.005300  -59.300000
-0.006800  -59.200000
-0.004600  -59.600000
-0.001500  -59.700000
-0.001500  -59.800000
-0.002300  -59.900000
-0.002300  -60.300000
-0.003000  -60.100000
-0.003000  -60.400000
-0.004600  -60.500000
-0.004600  -60.600000
-0.003000  -61.000000
-0.003000  -60.700000
-0.001500  -61.200000
-0.000800  -60.800000
-0.003800  -61.400000
-0.005300  -61.300000
-0.003000  -61.500000
0.003000  -61.600000
0.005200  -61.800000
0.003000  -61.900000
0.001500  -62.000000
0.000000  -62.200000
-0.000800  -62.300000
0.000700  -62.600000
0.000700  -62.400000
-0.004600  -62.800000
-0.006800  -62.700000
-0.006800  -63.000000
-0.006800  -63.000000
-0.004600  -63.000000
-0.003000  -63.400000
-0.001500  -63.300000
-0.003000  -63.800000
-0.004600  -63.500000
-0.005300  -63.700000
-0.003800  -63.800000
0.001500  -63.900000
0.006000  -63.800000
0.010500  -64.100000
0.009700  -64.200000
0.005200  -64.400000
0.005200  -64.500000
0.003000  -64.500000
0.001500  -64.800000
0.000700  -64.700000
-0.001500  -65.100000
-0.001500  -65.000000
-0.006000  -64.900000
-0.006000  -65.400000
-0.004600  -65.300000
-0.005300  -65.400000
-0.003800  -65.500000
-0.003000  -65.700000
0.000700  -65.600000
0.003000  -66.000000
0.003700  -65.700000
0.003000  -66.200000
0.000000  -66.000000
-0.003000  -66.400000
-0.003800  -66.400000
-0.002300  -66.400000
-0.001500  -66.800000
-0.000800  -66.600000
-0.000800  -67.100000
-0.004600  -66.900000
-0.004600  -67.000000
-0.005300  -67.300000
-0.003000  -67.200000
0.000700  -67.300000
0.000700  -67.500000
-0.000800  -67.600000
-0.001500  -67.600000
0.000700  -68.000000
-0.000800  -67.800000
-0.003000  -68.300000
-0.000800  -68.000000
0.003000  -68.300000
0.003700  -68.400000
-0.000800  -68.400000
-0.001500  -68.900000
-0.001500  -68.600000
-0.000800  -68.900000
0.000700  -68.800000
0.000000  -69.000000
-0.001500  -69.200000
-0.001500  -69.300000
0.001500  -69.200000
0.001500  -69.500000
0.000000  -69.300000
-0.001500  -69.500000
-0.003000  -69.800000
0.001500  -69.600000
0.004500  -70.200000
0.001500  -69.900000
-0.000800  -70.400000
-0.001500  -70.100000
-0.002300  -70.300000
-0.000800  -70.500000
-0.003000  -70.600000
-0.005300  -70.600000
-0.006800  -70.700000
-0.003800  -71.100000
-0.001500  -70.600000
-0.003800  -71.200000
-0.006800  -70.900000
-0.003000  -71.200000
0.000700  -71.400000
0.000700  -71.600000
0.004500  -71.600000
0.008200  -71.400000
0.007500  -71.900000
0.006700  -71.600000
0.009000  -72.000000
0.006700  -72.000000
0.004500  -72.000000
0.001500  -72.200000
-0.005300  -72.500000
-0.003000  -72.500000
0.000000  -72.400000
-0.000800  -72.600000
-0.000800  -72.600000
-0.003000  -73.000000
-0.003800  -72.800000
-0.004600  -73.100000
-0.005300  -72.900000
-0.003800  -73.400000
-0.003800  -73.300000
-0.004600  -73.300000
-0.004600  -73.700000
-0.007500  -73.600000
-0.005300  -73.800000
-0.003800  -73.800000
-0.002300  -73.900000
-0.000800  -73.900000
-0.004600  -74.200000
-0.003000  -74.200000
-0.005300  -74.300000
-0.007500  -74.700000
-0.009100  -74.500000
-0.010500  -74.800000
-0.008300  -74.800000
-0.006800  -75.100000
0.000700  -74.800000
0.005200  -75.300000
0.004500  -75.300000
0.007500  -75.300000
0.006000  -75.500000
0.001500  -75.600000
-0.000800  -75.500000
-0.003000  -75.800000
-0.006000  -76.000000
-0.003800  -76.000000
-0.002300  -76.400000
-0.004600  -76.200000
-0.009100  -76.400000
-0.010500  -76.500000
-0.006800  -76.600000
0.001500  -76.800000
0.005200  -76.800000
0.003700  -77.000000
0.003700  -77.000000
0.001500  -77.300000
0.000700  -77.400000
0.000000  -77.400000
-0.001500  -77.400000
0.000700  -77.700000
0.001500  -77.600000
0.001500  -78.000000
0.001500  -77.900000
0.001500  -78.100000
0.003000  -78.300000
0.004500  -78.200000
0.003700  -78.600000
0.002200  -78.500000
0.004500  -78.800000
0.005200  -78.900000
0.004500  -78.800000
0.000700  -79.100000
-0.001500  -79.100000
-0.000800  -79.400000
0.000700  -79.500000
0.004500  -79.400000
0.005200  -79.700000
0.002200  -79.900000
0.000700  -79.700000
-0.001500  -80.300000
-0.001500  -80.100000
-0.002300  -80.600000
0.000000  -80.500000
0.000700  -80.600000
-0.001500  -80.800000
-0.003000  -80.800000
-0.005300  -81.000000
-0.005300  -81.100000
-0.004600  -81.300000
-0.001500  -81.400000
-0.003000  -81.500000
-0.009100  -81.500000
-0.009800  -81.900000
-0.010500  -81.800000
-0.009800  -82.100000
-0.004600  -82.300000
-0.004600  -82.100000
-0.005300  -82.600000
-0.000800  -82.400000
0.000700  -82.900000
0.000000  -82.600000
-0.002300  -83.000000
-0.001500  -83.000000
0.003000  -83.200000
0.005200  -83.100000
-0.000800  -83.300000
-0.005300  -83.500000
-0.003000  -83.600000
-0.003000  -83.900000
-0.001500  -83.800000
0.000700  -84.300000
0.002200  -83.800000
-0.002300  -84.600000
-0.006800  -84.300000
-0.004600  -84.600000
-0.005300  -84.700000
-0.004600  -84.600000
-0.000800  -85.100000
0.003000  -84.900000
0.004500  -85.200000
0.006000  -85.200000
0.004500  -85.500000
0.004500  -85.500000
0.005200  -85.800000
0.001500  -85.800000
-0.000800  -85.800000
-0.004600  -86.000000
-0.004600  -85.900000
-0.000800  -86.300000
0.002200  -86.100000
0.001500  -86.700000
0.002200  -86.400000
0.003000  -86.900000
0.002200  -86.900000
0.000000  -86.900000
-0.001500  -87.000000
-0.002300  -87.300000
-0.000800  -87.300000
-0.004600  -87.500000
-0.006800  -87.600000
-0.006000  -87.600000
-0.006000  -87.900000
-0.003800  -88.000000
-0.003000  -88.200000
-0.002300  -88.300000
0.000000  -88.400000
0.000700  -88.500000
0.000700  -88.400000
0.003000  -88.900000
0.008200  -88.700000
0.009000  -89.000000
0.006700  -89.200000
0.002200  -89.300000
0.001500  -89.300000
0.002200  -89.600000
0.003000  -89.300000
0.003000  -89.900000
-0.000800  -89.700000
-0.005300  -90.100000
-0.006000  -90.100000
-0.006800  -90.200000
-0.003800  -90.400000
-0.004600  -90.400000
-0.004600  -90.700000
-0.006800  -90.700000
-0.012000  -90.700000
-0.009800  -91.000000
-0.010500  -91.000000
-0.009100  -91.100000
-0.003800  -91.400000
-0.002300  -91.500000
-0.000800  -91.500000
-0.000800  -91.800000
-0.003000  -91.600000
-0.003000  -92.000000
-0.001500  -91.800000
-0.001500  -92.300000
0.003000  -91.900000
0.009000  -92.300000
0.010500  -92.500000
0.005200  -92.300000
0.000700  -92.800000
0.001500  -92.700000
0.002200  -92.800000
0.000000  -93.000000
-0.003000  -93.000000
-0.005300  -93.100000
-0.005300  -93.400000
-0.004600  -93.400000
0.000700  -93.500000
0.000700  -93.700000
0.001500  -93.600000
-0.001500  -94.000000
-0.004600  -93.800000
-0.002300  -94.100000
-0.002300  -94.100000
-0.004600  -94.300000
-0.002300  -94.400000
0.000000  -94.400000
0.000000  -94.500000
0.000700  -94.700000
0.000000  -94.700000
0.002200  -94.700000
0.003700  -95.000000
0.006700  -94.700000
0.008200  -95.200000
0.003000  -94.900000
-0.001500  -95.300000
-0.004600  -95.400000
-0.001500  -95.400000
0.002200  -95.500000
0.004500  -95.600000
0.003000  -95.900000
-0.001500  -95.600000
-0.003000  -95.900000
-0.004600  -95.900000
-0.001500  -96.000000
-0.002300  -96.100000
-0.006800  -96.200000
-0.006000  -96.400000
-0.003000  -96.300000
0.001500  -96.800000
0.005200  -96.500000
0.005200  -96.800000
0.000000  -96.500000
-0.005300  -96.800000
-0.006000  -96.800000
-0.001500  -97.000000
0.003000  -97.100000
0.004500  -97.100000
0.000700  -97.200000
0.003700  -97.100000
0.016500  -97.200000
0.020200  -97.500000
0.011200  -97.500000
0.005200  -97.400000
0.001500  -97.800000
-0.003000  -97.700000
-0.009100  -97.800000
-0.014300  -97.700000
-0.018100  -97.700000
-0.018100  -98.200000
-0.019500  -97.700000
-0.021000  -98.200000
-0.015800  -97.900000
-0.012000  -98.400000
-0.005300  -98.100000
0.005200  -98.200000
0.005200  -98.300000
0.001500  -98.600000
0.000700  -98.400000
0.001500  -98.600000
0.003000  -98.700000
0.003000  -98.500000
0.000700  -98.900000
-0.000800  -98.600000
-0.003800  -98.900000
0.000700  -98.800000
0.003000  -99.000000
-0.000800  -99.000000
-0.001500  -98.900000
-0.003800  -99.400000
-0.003800  -99.100000
-0.003000  -99.100000
-0.004600  -99.200000
-0.001500  -99.400000
-0.000800  -99.100000
0.000000  -99.600000
0.003000  -99.200000
0.003000  -99.600000
0.003700  -99.400000
-0.001500  -99.500000
-0.009100  -99.600000
-0.008300  -99.500000
-0.009100  -99.700000
-0.008300  -99.600000
-0.003000  -99.700000
0.003000  -99.700000
0.005200  -99.800000
0.001500  -99.900000
0.005200  -99.900000
0.005200  -99.800000
-0.000800  -99.800000
-0.006000  -100.200000
-0.007500  -99.900000
-0.007500  -100.300000
-0.008300  -99.900000
-0.005300  -100.300000
0.001500  -100.000000
0.001500  -100.300000
0.000000  -100.000000
0.005200  -100.100000
0.005200  -100.400000
0.006000  -100.300000
0.006000  -100.300000
0.001500  -100.300000
0.001500  -100.500000
-0.003000  -100.300000
-0.005300  -100.600000
-0.001500  -100.300000
0.003000  -100.800000
0.006700  -100.500000
0.004500  -100.500000
0.000700  -100.600000
-0.000800  -100.600000
-0.003000  -100.800000
-0.006800  -100.600000
-0.006800  -100.800000
0.000000  -100.600000
0.003000  -100.800000
0.004500  -100.700000
0.006000  -100.800000
-0.002300  -100.900000
-0.008300  -100.800000
-0.007500  -100.900000
-0.008300  -100.800000
-0.006800  -101.100000
-0.006800  -100.700000
-0.003800  -101.200000
0.000700  -100.900000
0.004500  -101.100000
0.006700  -100.900000
0.006700  -101.100000
0.006700  -101.300000
0.005200  -100.900000
0.005200  -101.200000
0.005200  -101.200000
0.004500  -101.100000
0.001500  -101.200000
0.003000  -101.400000
0.004500  -101.200000
0.001500  -101.300000
-0.001500  -101.400000
-0.004600  -101.000000
-0.006800  -101.400000
-0.003000  -101.000000
-0.003000  -101.600000
-0.008300  -101.200000
-0.008300  -101.700000
-0.004600  -101.400000
-0.001500  -101.600000
-0.001500  -101.500000
-0.003000  -101.400000
-0.005300  -101.500000
-0.005300  -101.500000
-0.005300  -101.500000
-0.006800  -101.300000
-0.004600  -101.600000
-0.000800  -101.300000
0.000700  -101.500000
-0.003000  -101.500000
-0.003000  -101.400000
0.001500  -101.600000
0.004500  -101.400000
0.001500  -101.700000
-0.003000  -101.300000
-0.006000  -101.500000
-0.009100  -101.500000
-0.007500  -101.600000
-0.002300  -101.500000
-0.003000  -101.600000
-0.005300  -101.500000
-0.003000  -101.600000
0.000700  -101.400000
0.001500  -101.500000
0.003000  -101.600000
0.003000  -101.300000
0.002200  -101.600000
0.004500  -101.400000
0.001500  -101.700000
-0.000800  -101.600000
-0.000800  -101.400000
-0.002300  -101.700000
-0.001500  -101.400000
-0.003000  -101.600000
0.001500  -101.600000
0.009000  -101.400000
0.012000  -101.400000
0.011200  -101.600000
0.009700  -101.300000
0.005200  -101.700000
0.002200  -101.400000
0.004500  -101.600000
-0.000800  -101.400000
-0.003000  -101.500000
-0.003800  -101.600000
-0.006000  -101.400000
-0.004600  -101.500000
-0.008300  -101.400000
-0.009800  -101.400000
-0.004600  -101.400000
-0.000800  -101.500000
-0.000800  -101.400000
-0.003000  -101.400000
-0.002300  -101.200000
-0.000800  -101.300000
0.003000  -101.400000
0.002200  -101.000000
-0.001500  -101.600000
-0.003000  -101.100000
-0.004600  -101.400000
-0.001500  -101.200000
0.001500  -101.400000
0.000000  -101.200000
-0.003000  -101.300000
-0.003000  -101.200000
-0.001500  -101.100000
-0.000800  -101.300000
-0.001500  -101.100000
-0.000800  -101.400000
0.003000  -101.000000
0.001500  -101.400000
0.003000  -101.000000
0.004500  -101.300000
0.004500  -101.100000
0.004500  -101.100000
0.003000  -101.300000
0.003000  -100.800000
0.001500  -101.300000
0.001500  -100.900000
-0.002300  -101.100000
-0.004600  -101.100000
-0.004600  -101.000000
-0.001500  -101.100000
0.004500  -101.000000
0.003700  -101.000000
0.000700  -100.800000
-0.004600  -101.100000
-0.001500  -100.700000
-0.000800  -101.200000
-0.003000  -100.600000
-0.005300  -101.000000
-0.006000  -100.800000
-0.002300  -100.700000
-0.001500  -101.000000
0.000000  -100.600000
0.001500  -101.000000
0.001500  -100.800000
-0.000800  -100.900000
-0.003000  -100.700000
0.000000  -100.600000
-0.000800  -100.700000
-0.005300  -100.600000
-0.012000  -100.800000
-0.018800  -100.500000
-0.023300  -100.800000
-0.016500  -100.300000
-0.011300  -100.700000
-0.010500  -100.500000
-0.002300  -100.600000
0.001500  -100.400000
0.006000  -100.600000
0.014200  -100.500000
0.015000  -100.400000
0.005200  -100.400000
-0.000800  -100.400000
0.000000  -100.400000
-0.002300  -100.300000
0.000700  -100.500000
0.004500  -100.300000
0.004500  -100.500000
0.006700  -100.400000
0.003000  -100.400000
0.000700  -100.400000
-0.003000  -100.300000
-0.001500  -100.500000
0.003000  -100.100000
0.001500  -100.500000
-0.003000  -99.900000
-0.001500  -100.200000
-0.000800  -100.300000
-0.000800  -100.100000
-0.000800  -100.100000
-0.000800  -100.300000
-0.000800  -100.100000
0.001500  -100.300000
0.002200  -100.100000
-0.001500  -99.900000
-0.003800  -100.100000
-0.004600  -100.000000
-0.008300  -100.200000
-0.012800  -100.200000
-0.012800  -99.900000
-0.008300  -100.100000
-0.005300  -99.900000
-0.000800  -100.000000
0.003700  -99.900000
0.004500  -99.800000
0.003700  -100.000000
0.005200  -100.100000
0.005200  -99.800000
0.006700  -100.200000
0.006700  -99.900000
0.004500  -100.100000
0.000700  -99.900000
-0.004600  -99.900000
-0.005300  -100.000000
-0.004600  -99.800000
-0.004600  -100.000000
0.000700  -99.900000
0.000000  -100.000000
-0.001500  -99.900000
-0.000800  -99.800000
-0.001500  -99.900000
-0.004600  -99.900000
-0.004600  -99.900000
-0.001500  -99.900000
-0.003000  -99.900000
-0.000800  -99.700000
-0.001500  -100.100000
-0.003000  -99.800000
-0.003000  -100.100000
-0.004600  -99.800000
-0.001500  -99.900000
0.000700  -99.900000
0.001500  -99.900000
-0.001500  -100.000000
-0.003800  -99.900000
-0.003000  -99.900000
-0.003000  -99.900000
-0.004600  -100.000000
-0.003800  -99.700000
0.001500  -100.200000
0.005200  -99.900000
0.009000  -100.100000
0.010500  -100.000000
0.007500  -100.100000
0.001500  -100.100000
-0.001500  -99.800000
-0.000800  -100.300000
-0.001500  -99.900000
-0.001500  -100.200000
-0.005300  -100.200000
-0.006800  -100.100000
-0.006000  -100.000000
-0.003800  -100.000000
-0.003800  -100.000000
-0.006800  -100.200000
-0.006800  -100.300000
-0.005300  -100.100000
-0.000800  -100.400000
0.004500  -100.000000
0.008200  -100.400000
0.008200  -100.200000
0.010500  -100.300000
0.009000  -100.300000
0.003000  -100.200000
0.001500  -100.400000
-0.001500  -100.100000
-0.006800  -100.300000
-0.006800  -100.300000
-0.000800  -100.400000
-0.000800  -100.400000
0.000700  -100.500000
-0.001500  -100.300000
-0.004600  -100.400000
0.000700  -100.400000
-0.003000  -100.300000
-0.006000  -100.600000
-0.005300  -100.500000
-0.005300  -100.700000
-0.004600  -100.400000
-0.001500  -100.800000
0.003000  -100.400000
0.003700  -100.400000
0.005200  -100.700000
0.009000  -100.500000
0.010500  -100.500000
0.011200  -100.700000
0.006700  -100.500000
0.001500  -100.400000
0.002200  -100.800000
0.001500  -100.500000
0.003700  -100.700000
0.002200  -100.800000
-0.005300  -100.700000
-0.010500  -100.800000
-0.011300  -100.600000
-0.008300  -100.900000
-0.006800  -100.600000
-0.007500  -100.800000
-0.006800  -100.800000
-0.007500  -100.800000
-0.006000  -101.000000
-0.006800  -101.100000
-0.005300  -100.700000
-0.004600  -101.000000
-0.007500  -100.800000
-0.010500  -101.000000
-0.008300  -100.900000
-0.001500  -100.800000
-0.003000  -101.100000
-0.004600  -101.000000
-0.000800  -101.100000
0.000700  -101.000000
0.002200  -100.900000
0.003700  -101.100000
0.003000  -101.100000
0.001500  -101.000000
0.002200  -101.100000
0.003000  -101.200000
0.000700  -100.800000
0.000000  -101.300000
-0.000800  -101.000000
0.000700  -101.300000
0.001500  -101.100000
0.000000  -101.300000
-0.003000  -101.200000
-0.006800  -101.100000
-0.009100  -101.400000
-0.004600  -101.300000
0.001500  -101.400000
0.000700  -101.300000
-0.001500  -101.300000
0.006700  -101.300000
0.012700  -101.300000
0.007500  -101.200000
0.003000  -101.300000
-0.001500  -101.400000
-0.006800  -101.500000
-0.006000  -101.500000
-0.009100  -101.200000
-0.010500  -101.500000
-0.004600  -101.100000
0.001500  -101.500000
0.000000  -101.400000
-0.003800  -101.400000
-0.002300  -101.300000
-0.001500  -101.400000
-0.000800  -101.400000
0.009000  -101.300000
0.012700  -101.300000
0.009700  -101.100000
0.006000  -101.500000
0.002200  -101.100000
0.000700  -101.400000
-0.001500  -101.300000
-0.000800  -101.400000
-0.001500  -101.400000
0.000700  -101.200000
0.003000  -101.700000
0.003000  -101.200000
0.000000  -101.600000
-0.004600  -101.300000
-0.004600  -101.400000
-0.006800  -101.400000
-0.004600  -101.300000
-0.002300  -101.300000
0.001500  -101.300000
-0.000800  -101.300000
-0.004600  -101.300000
-0.000800  -101.400000
0.002200  -101.200000
-0.001500  -101.500000
-0.006000  -101.100000
-0.003800  -101.600000
-0.001500  -101.300000
0.000000  -101.400000
-0.002300  -101.300000
-0.005300  -101.300000
0.000700  -101.400000
0.003700  -101.300000
0.003000  -101.400000
0.000700  -101.300000
0.000700  -101.400000
0.003000  -101.200000
0.005200  -101.300000
0.012700  -101.400000
0.011200  -101.200000
0.003000  -101.500000
0.000700  -101.100000
-0.005300  -101.700000
-0.006800  -101.200000
-0.006000  -101.500000
-0.003000  -101.200000
-0.000800  -101.600000
-0.005300  -101.300000
-0.005300  -101.300000
-0.006800  -101.500000
-0.008300  -101.500000
-0.003000  -101.100000
0.001500  -101.300000
0.006700  -101.300000
0.001500  -101.200000
0.001500  -101.500000
0.003000  -101.200000
0.000700  -101.500000
0.000700  -101.300000
-0.005300  -101.200000
-0.009100  -101.500000
-0.009100  -101.200000
-0.007500  -101.500000
-0.006000  -101.300000
-0.004600  -101.300000
-0.003000  -101.300000
-0.003000  -101.300000
-0.003000  -101.100000
-0.003000  -101.400000
-0.001500  -101.100000
0.003000  -101.300000
0.006700  -101.400000
0.004500  -101.100000
0.002200  -101.500000
0.001500  -101.100000
-0.000800  -101.400000
0.000000  -101.300000
0.000000  -101.200000
-0.000800  -101.400000
0.002200  -101.300000
0.003000  -101.300000
0.000700  -101.100000
-0.000800  -101.200000
-0.003800  -101.100000
-0.006000  -101.400000
-0.003000  -101.000000
0.000000  -101.400000
0.000000  -100.900000
-0.000800  -101.300000
0.000000  -101.100000
-0.001500  -101.100000
-0.005300  -101.200000
-0.003000  -101.100000
0.001500  -101.300000
0.001500  -101.100000
-0.000800  -101.100000
-0.003800  -101.100000
-0.001500  -101.100000
0.000700  -101.100000
-0.000800  -101.100000
-0.000800  -101.300000
-0.006800  -100.900000
-0.012800  -101.400000
-0.012800  -100.900000
-0.008300  -101.300000
-0.006800  -100.900000
-0.005300  -101.100000
-0.005300  -101.200000
-0.004600  -101.100000
-0.003000  -101.200000
-0.001500  -100.900000
-0.000800  -100.900000
0.001500  -100.900000
0.000000  -101.200000
-0.003000  -100.900000
0.000700  -101.100000
0.001500  -100.800000
0.000000  -101.100000
-0.000800  -101.000000
0.003000  -100.800000
0.006000  -100.900000
0.004500  -100.800000
0.004500  -101.300000
0.003000  -100.800000
0.002200  -101.100000
-0.000800  -100.800000
-0.002300  -100.900000
-0.005300  -101.100000
-0.007500  -101.000000
-0.003800  -100.800000
0.000000  -100.900000
0.000700  -101.000000
0.000700  -100.700000
-0.000800  -101.100000
0.000700  -100.800000
0.002200  -101.000000
0.000700  -100.800000
-0.000800  -100.800000
0.000700  -101.100000
0.001500  -100.600000
0.000700  -101.000000
-0.002300  -100.600000
-0.003000  -100.900000
-0.003000  -100.800000
-0.005300  -100.800000
-0.003000  -100.800000
-0.001500  -100.900000
-0.002300  -100.800000
-0.003800  -100.800000
-0.003800  -100.900000
0.001500  -100.700000
0.000700  -101.100000
-0.001500  -100.600000
-0.000800  -100.800000
-0.001500  -100.700000
-0.001500  -100.900000
-0.003800  -100.800000
-0.003800  -100.700000
-0.001500  -100.900000
-0.000800  -100.800000
0.000700  -101.000000
0.001500  -100.600000
0.001500  -100.800000
0.001500  -100.800000
0.000700  -100.900000
0.003000  -100.600000
0.005200  -100.800000
0.006700  -100.600000
0.005200  -100.600000
0.004500  -100.800000
0.000700  -100.600000
0.000700  -100.800000
0.003000  -100.500000
0.000700  -100.700000
-0.000800  -100.600000
-0.000800  -100.700000
-0.003000  -100.500000
-0.003000  -100.800000
-0.003000  -100.400000
-0.000800  -100.800000
0.003000  -100.600000
0.003700  -100.500000
0.003700  -100.700000
0.001500  -100.500000
0.000000  -100.800000
-0.000800  -100.400000
-0.001500  -100.500000
-0.004600  -100.700000
-0.005300  -100.400000
-0.004600  -100.700000
-0.001500  -100.300000
-0.001500  -100.700000
-0.002300  -100.500000
0.000000  -100.400000
0.001500  -100.300000
0.001500  -100.700000
-0.002300  -100.300000
-0.005300  -100.500000
-0.004600  -100.400000
-0.004600  -100.400000
-0.003800  -100.500000
-0.004600  -100.300000
-0.004600  -100.500000
-0.003000  -100.400000
-0.003000  -100.300000
-0.004600  -100.400000
-0.005300  -100.300000
-0.003000  -100.300000
-0.000800  -100.400000
0.000700  -100.300000
-0.000800  -100.300000
-0.000800  -100.400000
-0.000800  -100.000000
0.003000  -100.600000
0.005200  -100.000000
0.004500  -100.300000
0.002200  -100.100000
-0.000800  -100.200000
-0.000800  -100.300000
-0.002300  -100.100000
-0.001500  -100.200000
-0.001500  -100.100000
-0.001500  -100.000000
0.000700  -100.100000
-0.001500  -100.200000
0.000000  -100.100000
0.000000  -100.100000
-0.004600  -100.000000
-0.004600  -100.100000
-0.003000  -100.300000
-0.003800  -99.700000
-0.004600  -100.300000
-0.006800  -99.800000
-0.005300  -100.000000
-0.001500  -99.800000
0.000000  -99.800000
0.000700  -99.900000
0.000000  -99.700000
-0.000800  -99.900000
0.000000  -99.700000
0.000000  -99.800000
-0.003000  -99.900000
-0.004600  -99.800000
-0.004600  -99.500000
-0.001500  -99.800000
0.000700  -99.600000
0.003000  -99.400000
0.004500  -99.700000
0.000700  -99.300000
-0.001500  -99.800000
-0.003000  -99.400000
-0.004600  -99.600000
-0.003800  -99.400000
-0.003800  -99.500000
-0.003800  -99.500000
-0.003000  -99.300000
-0.000800  -99.400000
-0.000800  -99.200000
0.000000  -99.400000
0.003000  -99.100000
0.002200  -99.400000
0.002200  -99.100000
0.003700  -99.100000
0.006700  -99.100000
0.006700  -99.000000
0.003700  -99.100000
0.001500  -98.800000
0.000700  -99.100000
0.000000  -98.700000
0.000700  -99.000000
0.003000  -98.900000
0.001500  -98.700000
0.001500  -98.700000
0.000700  -98.600000
0.000000  -98.800000
-0.001500  -98.500000
-0.001500  -98.700000
-0.001500  -98.400000
-0.003800  -98.700000
-0.006000  -98.100000
-0.006000  -98.600000
-0.006800  -98.200000
-0.006000  -98.400000
-0.005300  -98.200000
-0.003000  -98.100000
-0.000800  -98.400000
0.001500  -98.100000
0.001500  -98.200000
-0.001500  -97.900000
-0.000800  -98.000000
0.000700  -97.700000
-0.000800  -98.000000
-0.001500  -97.700000
-0.001500  -97.800000
-0.001500  -97.800000
-0.000800  -97.700000
0.001500  -97.900000
0.000700  -97.500000
-0.000800  -97.800000
-0.001500  -97.300000
-0.001500  -97.600000
-0.000800  -97.200000
-0.000800  -97.300000
-0.000800  -97.200000
0.000700  -97.200000
0.000700  -97.200000
-0.002300  -97.200000
0.000000  -97.100000
0.001500  -97.100000
0.000000  -97.000000
0.000700  -96.700000
0.000700  -96.900000
0.000700  -96.600000
-0.002300  -96.800000
-0.001500  -96.800000
0.000000  -96.500000
0.001500  -96.800000
0.003000  -96.200000
0.004500  -96.300000
0.004500  -96.300000
0.003000  -96.200000
0.003000  -96.100000
0.001500  -96.300000
-0.000800  -95.800000
-0.002300  -96.200000
-0.001500  -95.700000
0.000700  -95.900000
-0.001500  -95.800000
-0.000800  -95.500000
-0.000800  -95.800000
-0.003800  -95.400000
-0.003000  -95.600000
-0.003000  -95.300000
-0.004600  -95.400000
-0.004600  -95.300000
-0.002300  -95.100000
-0.005300  -95.000000
-0.006800  -95.100000
-0.008300  -95.000000
-0.006800  -94.700000
-0.002300  -94.900000
-0.000800  -94.500000
0.001500  -94.800000
0.003000  -94.200000
0.003000  -94.700000
0.006000  -94.200000
0.008200  -94.400000
0.008200  -94.200000
0.006700  -94.000000
0.005200  -94.100000
0.004500  -94.000000
0.004500  -94.100000
0.003000  -93.900000
0.000700  -93.900000
-0.000800  -93.400000
-0.001500  -93.600000
-0.000800  -93.300000
-0.000800  -93.400000
-0.003800  -93.400000
-0.005300  -93.000000
-0.003800  -93.300000
-0.002300  -92.700000
-0.003000  -93.100000
-0.002300  -92.700000
-0.002300  -92.900000
0.000700  -92.600000
0.005200  -92.400000
0.008200  -92.500000
0.007500  -92.400000
0.003000  -92.100000
0.000000  -92.300000
-0.000800  -92.200000
-0.001500  -91.800000
-0.001500  -92.200000
-0.000800  -91.600000
0.000700  -91.800000
0.003000  -91.500000
0.001500  -91.600000
-0.000800  -91.400000
-0.000800  -91.300000
-0.001500  -91.400000
-0.002300  -90.900000
-0.001500  -91.100000
0.000000  -91.100000
0.000000  -90.800000
-0.004600  -90.700000
-0.007500  -90.800000
-0.006800  -90.500000
-0.006800  -90.500000
-0.005300  -90.400000
-0.004600  -90.100000
-0.006000  -90.300000
-0.008300  -89.800000
-0.008300  -90.200000
-0.004600  -89.700000
-0.004600  -90.000000
-0.004600  -89.600000
-0.003000  -89.600000
-0.004600  -89.600000
-0.003000  -89.200000
-0.002300  -89.200000
-0.003000  -89.400000
-0.003000  -88.700000
-0.003000  -89.000000
-0.001500  -88.700000
-0.003800  -88.500000
-0.001500  -88.700000
-0.001500  -88.300000
-0.002300  -88.600000
-0.002300  -88.100000
-0.003000  -88.200000
0.000000  -88.100000
0.000000  -87.700000
0.003000  -87.900000
0.004500  -87.800000
0.001500  -87.700000
0.000700  -87.500000
0.000700  -87.400000
-0.002300  -87.200000
-0.002300  -87.300000
-0.003000  -86.800000
-0.006000  -87.000000
-0.006000  -86.700000
-0.003000  -86.700000
-0.001500  -86.700000
-0.005300  -86.300000
-0.006800  -86.400000
-0.005300  -86.100000
-0.006000  -86.100000
-0.006000  -86.100000
-0.006000  -85.800000
-0.006000  -85.600000
-0.006000  -85.500000
-0.006000  -85.300000
-0.003000  -85.400000
0.001500  -85.100000
0.001500  -85.000000
0.001500  -85.100000
0.001500  -84.600000
0.002200  -84.700000
0.000000  -84.300000
-0.006800  -84.500000
-0.006000  -84.100000
-0.002300  -84.200000
-0.000800  -84.000000
-0.000800  -83.800000
-0.000800  -83.700000
0.003000  -83.700000
0.003000  -83.400000
0.001500  -83.200000
0.003000  -83.100000
0.004500  -82.800000
0.005200  -83.200000
0.004500  -82.700000
0.004500  -82.600000
0.002200  -82.400000
0.001500  -82.300000
0.001500  -82.300000
0.003000  -82.000000
0.002200  -82.200000
0.000700  -81.700000
-0.000800  -81.600000
-0.001500  -81.500000
-0.003000  -81.300000
-0.001500  -81.300000
0.002200  -81.300000
0.000700  -81.100000
-0.003000  -80.600000
-0.003000  -80.700000
-0.001500  -80.400000
-0.003000  -80.700000
-0.003800  -80.000000
-0.001500  -80.200000
-0.003000  -79.900000
-0.003000  -79.900000
-0.003000  -79.800000
-0.003000  -79.500000
