File Name: 13gait.log
Channel 3: 'Vasto Medial', 19740 values, engineering units: mV, no filters.
Channel 5: 'Flexo', 19740 values, engineering units: deg, no filters.
Digitals combined (event=16, d=8, c=4, b=2, a=1): 19740 values, .
0.000700  79.200000
0.001500  79.100000
-0.000800  79.200000
-0.003000  79.300000
-0.003000  79.100000
-0.000800  79.200000
-0.000800  79.400000
-0.003000  79.000000
-0.004600  79.300000
-0.001500  79.100000
0.000700  79.100000
0.000000  79.200000
0.000700  79.200000
0.000000  79.200000
0.000700  79.200000
-0.000800  79.000000
0.000000  79.300000
0.002200  79.400000
0.000700  79.000000
0.003000  79.300000
0.002200  79.200000
0.002200  79.200000
0.001500  79.300000
0.000000  79.100000
-0.001500  79.300000
-0.004600  79.200000
-0.005300  79.300000
-0.005300  79.200000
-0.003000  79.300000
-0.001500  79.200000
-0.002300  79.200000
-0.000800  79.200000
-0.001500  79.300000
0.000700  79.300000
0.003000  79.200000
0.000700  79.300000
0.000700  79.100000
0.000700  79.600000
0.000700  79.100000
0.003000  79.400000
0.003000  79.100000
0.001500  79.300000
-0.000800  79.200000
-0.000800  79.300000
0.000700  79.200000
-0.001500  79.400000
-0.001500  79.200000
-0.001500  79.200000
-0.001500  79.300000
-0.001500  79.000000
-0.003800  79.600000
-0.002300  79.100000
-0.003000  79.300000
-0.003000  79.300000
-0.001500  79.100000
-0.002300  79.400000
-0.001500  79.000000
-0.000800  79.500000
0.000700  79.200000
0.000700  79.300000
0.001500  79.300000
0.001500  79.300000
0.001500  79.300000
0.003000  79.200000
0.001500  79.300000
0.001500  79.300000
0.005200  79.400000
0.006000  79.100000
0.003000  79.400000
0.000000  78.900000
0.000000  79.400000
0.001500  79.000000
0.000700  79.300000
-0.000800  79.200000
-0.000800  79.200000
0.001500  79.300000
0.000000  79.200000
-0.000800  79.200000
0.000700  79.300000
-0.000800  79.300000
0.000700  79.100000
0.000700  79.300000
0.000000  79.200000
0.000700  79.200000
0.000000  79.300000
-0.001500  79.200000
-0.000800  79.300000
-0.000800  79.000000
-0.002300  79.400000
-0.000800  79.000000
-0.000800  79.500000
0.000000  79.300000
-0.000800  79.300000
-0.000800  79.300000
0.000700  79.300000
0.000700  79.000000
0.000700  79.300000
0.001500  79.200000
0.001500  79.200000
0.003000  79.300000
0.003000  79.100000
0.002200  79.300000
0.001500  79.200000
0.003000  79.400000
0.002200  79.200000
0.001500  79.200000
0.001500  79.300000
0.000700  79.200000
0.000700  79.200000
-0.001500  79.200000
0.000000  79.200000
-0.001500  79.100000
-0.003000  79.400000
-0.000800  79.000000
-0.000800  79.300000
0.000700  79.100000
0.000700  79.500000
0.000700  79.200000
0.000000  79.200000
-0.000800  79.300000
-0.000800  79.200000
-0.000800  79.300000
-0.000800  79.200000
-0.000800  79.300000
-0.000800  79.300000
-0.003000  79.300000
-0.003000  79.000000
-0.003000  79.500000
-0.004600  79.100000
-0.005300  79.400000
-0.003000  79.200000
-0.004600  79.200000
-0.003800  79.400000
-0.003000  79.000000
-0.003800  79.400000
-0.001500  79.000000
-0.000800  79.600000
0.000000  79.000000
-0.001500  79.300000
-0.003000  79.300000
-0.000800  79.200000
0.000700  79.300000
0.000700  79.200000
0.000700  79.400000
-0.000800  79.000000
0.000000  79.600000
0.001500  79.100000
0.003000  79.400000
0.003700  79.000000
0.005200  79.200000
0.004500  79.200000
0.003700  79.100000
0.005200  79.300000
0.004500  79.200000
0.002200  79.500000
-0.000800  79.300000
-0.002300  79.200000
-0.001500  79.200000
-0.000800  79.200000
0.000700  79.200000
0.000000  79.300000
-0.000800  79.200000
-0.001500  79.300000
0.000000  79.300000
0.000700  79.200000
-0.001500  79.400000
-0.000800  79.000000
0.000700  79.600000
-0.000800  78.900000
-0.000800  79.400000
0.003000  79.300000
0.002200  79.200000
0.001500  79.300000
0.002200  79.200000
0.001500  79.100000
0.001500  79.300000
0.003700  79.200000
0.003700  79.300000
0.000700  79.400000
0.000000  79.200000
-0.001500  79.300000
-0.000800  79.300000
-0.001500  79.300000
-0.003800  79.300000
-0.003000  79.200000
-0.003000  79.400000
-0.001500  79.200000
0.001500  79.300000
0.003000  79.400000
0.002200  79.300000
0.000700  79.100000
-0.000800  79.500000
-0.001500  79.100000
-0.002300  79.400000
-0.003800  79.100000
-0.003800  79.400000
-0.003000  79.100000
-0.000800  79.200000
0.001500  79.400000
0.002200  79.200000
0.002200  79.400000
0.001500  79.200000
0.001500  79.200000
0.003000  79.300000
0.002200  79.300000
0.000700  79.400000
0.001500  79.600000
0.002200  79.200000
0.001500  79.300000
0.002200  79.300000
0.000000  79.200000
0.000000  79.400000
0.000000  79.300000
0.000700  79.500000
0.000700  79.200000
-0.000800  79.500000
0.000700  79.300000
0.001500  79.500000
0.001500  79.300000
-0.000800  79.200000
0.000000  79.300000
0.000000  79.300000
-0.002300  79.500000
-0.003000  79.200000
-0.004600  79.500000
-0.005300  79.200000
-0.005300  79.600000
-0.003800  79.100000
-0.004600  79.600000
-0.003000  79.300000
-0.000800  79.400000
0.001500  79.300000
0.002200  79.300000
0.001500  79.600000
0.001500  79.300000
0.001500  79.400000
0.000700  79.300000
0.001500  79.300000
0.001500  79.200000
0.001500  79.500000
0.001500  79.200000
0.001500  79.400000
0.001500  79.400000
0.000700  79.300000
0.000700  79.500000
-0.000800  79.200000
0.000000  79.600000
-0.000800  79.200000
0.000700  79.800000
0.001500  79.300000
0.000700  79.300000
0.001500  79.500000
0.000700  79.500000
0.000000  79.500000
0.000000  79.800000
0.001500  79.400000
0.000700  79.600000
0.000700  79.600000
0.001500  79.400000
0.000000  79.600000
-0.000800  79.300000
-0.001500  79.500000
-0.000800  79.300000
-0.000800  79.400000
-0.001500  79.500000
-0.000800  79.300000
-0.001500  79.600000
-0.002300  79.400000
-0.000800  79.300000
-0.000800  79.500000
-0.002300  79.600000
-0.002300  79.300000
-0.003000  79.600000
-0.001500  79.200000
-0.000800  79.700000
-0.001500  79.300000
-0.000800  79.400000
0.000700  79.500000
0.000700  79.300000
0.000700  79.600000
0.000000  79.400000
0.003000  79.600000
0.006000  79.500000
0.003700  79.400000
0.003700  79.600000
0.001500  79.600000
0.002200  79.300000
0.004500  79.600000
0.002200  79.400000
0.000700  79.500000
-0.003000  79.600000
-0.003800  79.200000
-0.000800  79.600000
0.000700  79.200000
0.001500  79.800000
0.000700  79.300000
-0.001500  79.700000
-0.003000  79.400000
-0.004600  79.600000
-0.004600  79.500000
-0.003000  79.600000
-0.000800  79.500000
0.003000  79.400000
0.004500  79.800000
0.000000  79.500000
-0.001500  79.800000
-0.001500  79.400000
-0.002300  79.600000
-0.000800  79.400000
0.000000  79.600000
-0.000800  79.700000
-0.000800  79.400000
-0.000800  79.900000
0.001500  79.300000
-0.000800  79.600000
-0.000800  79.600000
-0.000800  79.600000
-0.000800  79.600000
-0.000800  79.700000
-0.001500  79.500000
-0.004600  79.600000
-0.004600  79.600000
-0.004600  79.500000
-0.003800  79.600000
-0.000800  79.500000
-0.002300  79.800000
-0.001500  79.300000
0.000700  79.800000
0.003000  79.500000
0.002200  79.600000
0.001500  79.600000
0.003000  79.600000
0.000700  79.600000
-0.000800  79.900000
0.000000  79.600000
0.000000  79.600000
0.001500  79.800000
0.003000  79.500000
0.002200  79.800000
0.003700  79.500000
0.003000  79.500000
0.003000  79.600000
0.004500  79.600000
0.004500  79.800000
0.004500  79.500000
0.004500  79.800000
0.003000  79.600000
0.001500  79.600000
0.000000  79.600000
-0.001500  79.600000
0.000700  79.400000
-0.000800  80.000000
-0.001500  79.400000
-0.002300  79.700000
-0.003000  79.600000
-0.001500  79.800000
-0.003000  79.700000
-0.003000  79.400000
-0.002300  79.900000
-0.003000  79.600000
-0.002300  79.600000
-0.004600  79.700000
-0.003000  79.700000
0.000000  79.600000
-0.000800  79.700000
-0.000800  79.500000
0.000000  79.700000
0.000000  79.600000
0.000700  79.600000
0.000700  79.800000
0.000000  79.400000
-0.000800  79.900000
-0.001500  79.400000
-0.000800  80.000000
0.000700  79.600000
0.000700  79.800000
-0.000800  79.600000
-0.000800  79.500000
0.001500  79.800000
0.000700  79.800000
0.000000  79.900000
-0.001500  79.800000
-0.002300  79.800000
-0.001500  79.600000
0.001500  79.800000
0.003000  79.600000
0.001500  80.100000
0.000700  79.600000
-0.003000  80.000000
-0.001500  79.600000
0.000000  79.900000
0.000000  79.700000
0.000000  79.600000
-0.000800  80.000000
-0.000800  79.700000
-0.000800  79.600000
0.000000  79.600000
0.000000  79.900000
0.001500  79.600000
0.002200  79.900000
0.001500  79.700000
0.000700  79.800000
-0.000800  79.900000
-0.001500  79.600000
0.000000  79.900000
0.000000  79.600000
0.000000  79.900000
0.002200  79.600000
0.001500  79.900000
0.003000  79.600000
0.003000  79.800000
0.000700  79.800000
0.001500  79.900000
-0.000800  79.600000
0.000700  80.100000
0.003000  79.500000
0.000700  80.000000
0.000700  79.600000
0.000700  79.900000
0.001500  79.900000
0.002200  79.800000
0.000700  79.900000
0.001500  79.600000
0.000700  80.000000
0.000000  79.700000
0.000700  79.900000
0.000700  79.700000
-0.000800  79.700000
-0.001500  79.700000
-0.000800  80.000000
-0.003000  79.700000
-0.004600  79.900000
-0.001500  79.900000
-0.000800  79.600000
0.000000  80.000000
-0.000800  79.500000
0.000000  80.100000
-0.001500  79.600000
-0.001500  80.100000
-0.000800  79.600000
-0.001500  79.900000
-0.001500  80.000000
-0.003000  79.800000
-0.003800  79.900000
-0.003000  79.800000
-0.002300  79.900000
-0.001500  79.600000
-0.000800  79.900000
-0.000800  79.500000
0.002200  80.100000
0.002200  79.600000
0.000000  80.000000
0.000700  79.700000
0.000700  80.000000
0.000700  79.900000
0.001500  79.700000
-0.000800  80.100000
-0.002300  79.700000
-0.002300  79.900000
-0.000800  79.800000
-0.000800  79.800000
-0.003000  79.600000
-0.000800  79.900000
0.000700  79.700000
0.000700  79.900000
0.001500  79.800000
0.000700  79.700000
0.001500  79.900000
0.001500  79.700000
0.001500  80.000000
0.000700  79.700000
0.000700  80.100000
0.001500  79.600000
0.003000  79.700000
0.003000  79.800000
0.000700  79.800000
-0.000800  79.700000
0.000700  80.000000
0.003000  79.500000
0.000700  80.000000
0.003000  79.800000
0.002200  79.600000
0.001500  79.800000
0.001500  79.600000
0.000000  79.800000
0.000000  79.600000
-0.001500  79.900000
-0.003000  79.700000
-0.003800  79.700000
-0.003000  79.900000
-0.002300  79.700000
-0.003800  79.600000
-0.004600  79.800000
-0.006800  79.800000
-0.005300  79.600000
-0.006800  79.800000
-0.006800  79.600000
-0.003000  80.000000
-0.001500  79.500000
-0.001500  80.100000
0.000000  79.600000
0.000000  79.900000
0.000700  79.600000
0.001500  79.700000
0.000700  79.700000
0.001500  79.600000
0.003000  79.700000
0.001500  79.600000
0.000000  79.700000
-0.000800  79.600000
0.001500  79.900000
0.003000  79.600000
0.004500  80.000000
0.003000  79.600000
0.002200  79.900000
0.003000  79.500000
0.002200  79.700000
0.002200  79.800000
0.000700  79.600000
0.001500  79.900000
0.000700  79.600000
-0.000800  79.800000
-0.001500  79.800000
-0.001500  79.600000
-0.001500  79.800000
-0.001500  79.900000
-0.000800  79.600000
-0.000800  79.900000
0.001500  79.600000
0.002200  79.600000
0.003000  79.800000
0.003000  79.600000
0.002200  79.900000
0.003000  79.400000
0.000000  79.900000
-0.001500  79.600000
-0.001500  79.900000
-0.000800  79.600000
0.000000  79.600000
0.000700  79.800000
0.000700  79.600000
0.001500  79.600000
0.001500  79.900000
0.001500  79.500000
0.000700  79.600000
0.001500  79.600000
0.002200  79.600000
0.001500  79.800000
0.000700  79.500000
-0.002300  79.800000
-0.005300  79.600000
-0.003000  79.600000
-0.002300  79.600000
-0.003800  79.600000
-0.002300  79.600000
-0.003800  79.600000
-0.003800  79.700000
-0.003000  79.700000
-0.001500  79.600000
-0.000800  79.600000
-0.001500  79.700000
0.002200  79.400000
0.000000  80.000000
-0.001500  79.500000
-0.001500  79.900000
-0.001500  79.600000
0.000000  79.700000
0.000700  79.500000
0.001500  79.600000
0.001500  79.600000
0.003000  79.500000
0.003000  79.600000
0.003000  79.600000
0.001500  79.700000
0.000700  79.300000
0.000700  79.800000
0.001500  79.500000
0.003000  79.800000
0.003000  79.300000
0.001500  79.700000
0.000700  79.600000
0.000700  79.500000
-0.000800  79.700000
-0.000800  79.600000
-0.000800  79.800000
-0.000800  79.600000
0.000000  79.500000
0.000700  79.600000
0.000700  79.600000
0.000700  79.500000
0.001500  79.700000
0.000700  79.600000
0.000700  79.600000
0.000700  79.600000
0.001500  79.600000
0.004500  79.600000
0.001500  79.400000
0.002200  79.700000
0.002200  79.300000
-0.000800  79.900000
-0.001500  79.400000
-0.003800  79.600000
-0.003000  79.600000
-0.002300  79.500000
-0.003800  79.400000
-0.001500  80.000000
-0.001500  79.500000
-0.001500  79.600000
-0.001500  79.500000
-0.001500  79.600000
-0.001500  79.600000
-0.000800  79.400000
-0.001500  79.700000
-0.004600  79.500000
-0.002300  79.700000
-0.000800  79.500000
-0.000800  79.600000
0.000000  79.500000
-0.001500  79.600000
0.000700  79.600000
-0.000800  79.600000
0.000000  79.600000
0.001500  79.500000
0.000700  79.600000
0.001500  79.400000
-0.000800  79.900000
0.000700  79.200000
0.003000  79.700000
0.001500  79.400000
0.001500  79.700000
0.001500  79.400000
0.002200  79.600000
0.000700  79.600000
0.000700  79.500000
-0.001500  79.600000
-0.003000  79.600000
-0.006000  79.600000
-0.006000  79.300000
-0.002300  79.600000
0.000000  79.300000
0.000700  79.800000
0.000700  79.400000
0.003000  79.800000
0.004500  79.500000
0.003700  79.600000
0.003000  79.600000
0.000700  79.400000
0.000700  79.700000
0.000700  79.300000
0.000700  79.600000
0.000700  79.500000
-0.002300  79.600000
-0.003000  79.600000
-0.002300  79.600000
-0.003800  79.400000
-0.002300  79.700000
0.001500  79.600000
0.000700  79.600000
-0.000800  79.600000
0.000700  79.300000
-0.001500  79.900000
-0.003800  79.400000
-0.001500  79.600000
-0.001500  79.300000
-0.002300  79.600000
-0.003800  79.500000
-0.003000  79.600000
-0.001500  79.500000
-0.002300  79.700000
-0.000800  79.500000
0.000000  79.600000
0.001500  79.600000
0.000000  79.600000
-0.001500  79.600000
0.000000  79.500000
-0.001500  79.700000
-0.001500  79.400000
-0.000800  79.600000
-0.000800  79.600000
0.000000  79.500000
0.000000  79.900000
0.001500  79.600000
0.003000  79.500000
0.001500  79.600000
0.001500  79.600000
0.003000  79.500000
0.006000  79.700000
0.006700  79.300000
0.005200  79.800000
0.005200  79.300000
0.006000  79.700000
0.003700  79.500000
0.000700  79.700000
0.003000  79.600000
0.001500  79.500000
-0.000800  79.900000
-0.002300  79.400000
-0.003000  79.600000
-0.001500  79.600000
-0.001500  79.600000
-0.000800  79.400000
0.000000  79.800000
-0.000800  79.300000
0.000000  79.700000
-0.001500  79.500000
-0.003000  79.700000
-0.001500  79.600000
-0.001500  79.400000
-0.001500  79.700000
-0.002300  79.400000
-0.003000  79.900000
-0.000800  79.500000
0.000000  79.600000
-0.000800  79.600000
-0.000800  79.600000
0.000700  79.700000
0.000000  79.700000
0.000700  79.800000
0.000000  79.600000
-0.001500  79.800000
-0.000800  79.500000
-0.002300  79.900000
-0.001500  79.500000
-0.001500  79.800000
-0.002300  79.500000
-0.001500  79.600000
-0.001500  79.700000
-0.002300  79.600000
-0.003000  79.700000
-0.002300  79.500000
-0.001500  79.600000
-0.000800  79.600000
-0.001500  79.600000
-0.000800  79.500000
0.001500  79.700000
0.000000  79.500000
0.001500  79.700000
0.003000  79.600000
0.000700  79.600000
-0.000800  79.700000
-0.002300  79.400000
-0.000800  79.900000
0.000700  79.300000
-0.000800  79.900000
-0.000800  79.600000
-0.000800  79.600000
0.000000  79.600000
0.000000  79.600000
0.001500  79.500000
0.000700  79.900000
0.001500  79.600000
0.003700  79.600000
0.001500  79.700000
0.002200  79.500000
0.003000  79.700000
0.005200  79.600000
0.004500  79.600000
0.003000  79.600000
0.000700  79.600000
-0.002300  79.900000
-0.002300  79.600000
-0.003800  79.700000
-0.004600  79.600000
-0.006000  79.600000
-0.006800  79.600000
-0.003800  79.600000
-0.002300  79.500000
-0.001500  79.900000
-0.001500  79.600000
-0.001500  80.000000
0.000700  79.600000
0.001500  79.800000
0.003000  79.600000
0.000700  79.600000
0.002200  79.700000
0.005200  79.500000
0.006000  79.700000
0.003000  79.600000
0.003000  79.600000
0.004500  79.700000
0.003700  79.900000
0.004500  79.500000
0.005200  79.700000
0.005200  79.600000
0.005200  79.600000
0.004500  79.600000
0.003000  79.600000
0.001500  80.000000
-0.000800  79.500000
-0.001500  80.000000
-0.003800  79.500000
-0.005300  79.900000
-0.004600  79.700000
-0.005300  79.600000
-0.005300  79.800000
-0.004600  79.600000
-0.004600  79.700000
-0.003800  79.500000
-0.003800  79.900000
-0.002300  79.600000
-0.001500  79.900000
0.000000  79.500000
-0.000800  79.900000
-0.001500  79.600000
-0.001500  79.700000
0.000700  79.800000
0.003700  79.600000
0.005200  79.800000
0.004500  79.700000
0.001500  79.900000
0.000700  79.600000
0.000700  79.600000
0.001500  79.600000
-0.001500  79.800000
-0.003000  79.600000
-0.002300  79.600000
-0.003000  79.700000
-0.002300  79.500000
-0.000800  79.800000
-0.001500  79.500000
-0.001500  80.000000
-0.000800  79.500000
-0.000800  79.900000
-0.001500  79.600000
-0.002300  79.600000
-0.001500  79.700000
0.001500  79.600000
0.000700  79.600000
0.001500  79.800000
0.000000  79.600000
-0.000800  79.700000
-0.000800  79.700000
-0.001500  79.600000
-0.000800  79.800000
-0.000800  79.500000
-0.000800  79.800000
0.000700  79.600000
0.000000  79.600000
0.000000  79.700000
0.001500  79.600000
0.000000  79.700000
-0.002300  79.600000
-0.001500  79.700000
-0.003800  79.800000
-0.002300  79.800000
0.000000  79.600000
0.000700  80.000000
0.000700  79.500000
-0.000800  79.900000
0.000000  79.600000
0.000700  79.900000
-0.000800  79.700000
-0.000800  79.800000
-0.000800  79.900000
-0.001500  79.500000
-0.000800  79.900000
0.001500  79.800000
0.003000  79.800000
0.005200  79.800000
0.006700  79.700000
0.004500  79.400000
0.003700  79.900000
0.000700  79.600000
-0.000800  79.800000
0.001500  79.600000
0.003000  79.700000
0.001500  79.700000
-0.000800  79.600000
-0.000800  79.900000
-0.000800  79.600000
0.000000  79.900000
0.001500  79.600000
0.001500  79.700000
0.001500  79.600000
0.003000  79.600000
0.001500  79.600000
0.001500  79.600000
0.001500  79.900000
0.000700  79.600000
0.002200  79.800000
0.000700  79.500000
-0.000800  79.800000
-0.000800  79.400000
0.000000  79.900000
0.000700  79.600000
-0.000800  79.700000
-0.000800  79.600000
-0.001500  79.500000
-0.003800  79.600000
-0.003000  79.700000
-0.002300  79.600000
-0.000800  79.700000
0.000000  79.600000
-0.003000  79.600000
-0.003000  79.600000
-0.003000  79.700000
-0.005300  79.800000
-0.005300  79.600000
-0.004600  79.700000
-0.001500  79.600000
0.000000  79.600000
0.001500  79.600000
0.003000  79.500000
0.004500  79.800000
0.004500  79.700000
0.001500  79.600000
-0.000800  79.800000
-0.000800  79.700000
0.000700  79.600000
0.000700  79.900000
0.000700  79.500000
0.002200  79.800000
0.000700  79.500000
0.000700  79.700000
0.000700  79.500000
0.000700  79.600000
-0.000800  79.600000
0.000700  79.500000
0.000000  79.700000
-0.000800  79.500000
0.000700  79.800000
0.000700  79.600000
-0.001500  79.600000
-0.002300  79.600000
0.000000  79.900000
0.000000  79.500000
0.000000  79.700000
-0.001500  79.600000
-0.001500  79.700000
0.000700  79.600000
0.000700  79.400000
-0.000800  79.900000
-0.001500  79.300000
-0.001500  79.900000
-0.001500  79.400000
-0.000800  79.600000
0.000700  79.600000
-0.001500  79.600000
-0.001500  79.600000
-0.001500  79.600000
-0.002300  79.700000
-0.001500  79.600000
-0.001500  79.700000
0.000700  79.400000
0.002200  79.900000
0.000700  79.400000
0.000000  79.800000
0.000000  79.400000
-0.000800  79.700000
-0.000800  79.600000
0.001500  79.500000
0.003000  79.800000
0.003000  79.600000
0.001500  79.500000
0.000700  79.600000
-0.000800  79.600000
-0.001500  79.500000
-0.000800  79.800000
0.000700  79.600000
0.000700  79.800000
0.000700  79.500000
0.000000  79.500000
-0.001500  79.600000
-0.001500  79.400000
-0.000800  79.800000
-0.000800  79.400000
0.000700  79.700000
0.002200  79.500000
0.003000  79.600000
0.003000  79.600000
0.001500  79.600000
0.000000  79.400000
0.001500  79.700000
0.002200  79.400000
0.003000  79.800000
0.001500  79.600000
0.004500  79.600000
0.003000  79.500000
0.000700  79.600000
0.000700  79.600000
-0.001500  79.400000
-0.001500  79.600000
-0.002300  79.600000
-0.003800  79.600000
-0.001500  79.600000
-0.001500  79.600000
-0.000800  79.600000
0.000700  79.600000
0.000000  79.400000
-0.000800  79.700000
-0.000800  79.600000
-0.000800  79.400000
-0.000800  79.800000
-0.000800  79.300000
0.001500  79.900000
0.001500  79.300000
0.001500  79.800000
0.000000  79.500000
-0.001500  79.700000
0.000700  79.600000
0.000000  79.600000
0.001500  79.600000
0.000700  79.600000
-0.001500  79.600000
-0.000800  79.500000
0.000700  79.900000
0.000700  79.300000
-0.003000  79.800000
-0.003000  79.300000
-0.003800  79.600000
-0.002300  79.400000
0.000000  79.400000
0.000000  79.600000
-0.000800  79.300000
-0.002300  79.700000
-0.004600  79.500000
-0.003000  79.600000
-0.000800  79.600000
-0.000800  79.500000
-0.001500  79.400000
-0.003000  79.700000
-0.002300  79.300000
0.000700  79.600000
0.003000  79.500000
0.000700  79.600000
0.000700  79.600000
0.002200  79.500000
0.000700  79.700000
0.000700  79.300000
0.000000  79.800000
0.000700  79.300000
0.002200  79.600000
0.002200  79.600000
0.001500  79.600000
0.000700  79.600000
-0.003000  79.800000
-0.003800  79.300000
-0.003000  79.600000
-0.000800  79.500000
-0.000800  79.500000
-0.002300  79.600000
-0.001500  79.400000
0.000000  79.600000
0.001500  79.500000
0.003000  79.600000
0.002200  79.500000
0.003700  79.600000
0.003700  79.500000
0.003000  79.500000
0.004500  79.600000
0.003000  79.600000
0.003000  79.500000
0.002200  79.300000
0.000700  79.600000
0.001500  79.400000
-0.000800  79.600000
-0.001500  79.400000
-0.000800  79.800000
-0.000800  79.300000
0.000700  79.500000
0.000700  79.500000
-0.000800  79.500000
0.000000  79.500000
0.000700  79.600000
-0.000800  79.600000
-0.001500  79.600000
-0.000800  79.600000
0.000700  79.400000
-0.000800  79.900000
-0.003000  79.200000
-0.003000  79.600000
-0.003000  79.500000
-0.002300  79.600000
0.000000  79.500000
0.000000  79.500000
0.000000  79.600000
-0.000800  79.300000
-0.003000  79.800000
-0.003800  79.200000
-0.002300  79.300000
-0.003000  79.400000
-0.000800  79.500000
0.000000  79.600000
0.000700  79.600000
0.000700  79.600000
-0.000800  79.400000
0.000700  79.600000
0.000700  79.500000
0.001500  79.600000
0.000700  79.300000
-0.000800  79.800000
-0.001500  79.200000
-0.000800  79.800000
-0.000800  79.400000
-0.000800  79.600000
0.000700  79.600000
-0.000800  79.500000
-0.000800  79.500000
0.001500  79.600000
0.001500  79.400000
-0.000800  79.500000
-0.001500  79.600000
-0.001500  79.300000
-0.000800  79.700000
0.000700  79.300000
0.001500  79.600000
0.001500  79.500000
0.003000  79.400000
0.004500  79.600000
0.004500  79.300000
0.004500  79.700000
0.004500  79.600000
0.004500  79.500000
0.003000  79.600000
0.003000  79.600000
0.003000  79.300000
0.001500  79.800000
0.002200  79.400000
0.002200  79.800000
0.003000  79.300000
0.000700  79.600000
0.000700  79.400000
0.000700  79.600000
-0.002300  79.400000
-0.001500  79.400000
-0.001500  79.600000
-0.003000  79.400000
-0.004600  79.500000
-0.004600  79.600000
-0.003000  79.400000
-0.001500  79.400000
-0.000800  79.700000
-0.002300  79.300000
-0.000800  79.500000
0.001500  79.600000
0.000700  79.600000
-0.001500  79.600000
-0.002300  79.300000
-0.003000  79.600000
-0.003000  79.400000
-0.001500  79.700000
-0.002300  79.300000
-0.002300  79.600000
-0.001500  79.500000
-0.003000  79.500000
-0.002300  79.400000
-0.001500  79.600000
-0.000800  79.600000
-0.001500  79.500000
-0.001500  79.500000
-0.001500  79.600000
-0.001500  79.600000
-0.003000  79.200000
-0.000800  79.700000
0.001500  79.200000
0.000000  79.700000
0.000000  79.300000
0.000700  79.400000
0.001500  79.500000
0.002200  79.500000
0.003000  79.500000
0.003000  79.600000
0.000700  79.500000
-0.000800  79.400000
-0.003800  79.700000
-0.000800  79.300000
0.000000  79.600000
-0.000800  79.300000
0.000700  79.600000
0.000700  79.300000
-0.000800  79.500000
-0.001500  79.600000
-0.001500  79.300000
0.000700  79.700000
0.000000  79.200000
0.000700  79.600000
0.000700  79.600000
0.000000  79.600000
0.000700  79.300000
0.001500  79.700000
0.003000  79.200000
0.003000  79.600000
0.000700  79.200000
0.000700  79.600000
-0.001500  79.400000
-0.003000  79.500000
-0.001500  79.500000
-0.000800  79.300000
0.000700  79.600000
0.000700  79.400000
0.000700  79.500000
0.001500  79.600000
0.002200  79.400000
0.001500  79.400000
-0.000800  79.500000
-0.000800  79.500000
-0.003000  79.500000
-0.003000  79.500000
0.000000  79.300000
-0.000800  79.600000
-0.001500  79.300000
-0.000800  79.700000
-0.001500  79.200000
-0.001500  79.600000
-0.001500  79.400000
-0.003000  79.500000
-0.000800  79.400000
-0.001500  79.400000
0.000000  79.500000
0.000700  79.500000
0.000700  79.400000
0.001500  79.500000
-0.000800  79.600000
0.000000  79.200000
-0.000800  79.600000
-0.003000  79.100000
0.000000  79.600000
0.000700  79.200000
-0.000800  79.400000
0.000700  79.300000
0.002200  79.400000
0.004500  79.400000
0.004500  79.300000
0.005200  79.500000
0.006000  79.600000
0.005200  79.400000
0.005200  79.400000
0.004500  79.500000
0.003000  79.200000
0.003700  79.500000
0.003000  79.300000
0.001500  79.500000
0.002200  79.300000
0.000700  79.300000
0.000000  79.500000
-0.001500  79.200000
-0.001500  79.600000
-0.000800  79.200000
-0.003000  79.600000
-0.005300  79.400000
-0.006800  79.300000
-0.005300  79.300000
-0.003000  79.600000
-0.002300  79.100000
-0.002300  79.600000
-0.001500  79.200000
-0.001500  79.500000
-0.001500  79.100000
-0.002300  79.500000
-0.000800  79.300000
0.000700  79.200000
-0.001500  79.600000
0.001500  79.300000
0.004500  79.500000
0.004500  79.500000
0.004500  79.400000
0.005200  79.400000
0.004500  79.300000
0.002200  79.100000
0.003000  79.500000
0.000700  79.200000
-0.000800  79.400000
-0.000800  79.300000
-0.000800  79.200000
-0.001500  79.600000
-0.003000  79.100000
-0.000800  79.600000
-0.000800  79.000000
-0.001500  79.500000
-0.001500  79.200000
-0.003000  79.300000
-0.003000  79.300000
-0.003000  79.500000
-0.003000  79.300000
-0.003000  79.400000
-0.000800  79.500000
-0.001500  79.200000
-0.000800  79.600000
0.000000  79.200000
0.000700  79.600000
0.001500  79.100000
0.002200  79.500000
0.002200  79.200000
0.003000  79.600000
0.001500  79.200000
-0.000800  79.300000
-0.000800  79.500000
-0.001500  79.400000
-0.001500  79.200000
-0.001500  79.300000
0.000700  79.400000
0.000700  79.200000
-0.001500  79.400000
-0.000800  79.200000
-0.000800  79.500000
0.000000  79.400000
-0.000800  79.400000
-0.000800  79.500000
0.000000  79.200000
-0.002300  79.500000
-0.004600  79.100000
-0.004600  79.600000
-0.003000  79.200000
-0.002300  79.300000
-0.001500  79.400000
0.000000  79.400000
0.000700  79.100000
0.001500  79.600000
0.002200  79.200000
0.004500  79.600000
0.003700  79.300000
0.000700  79.500000
-0.000800  79.500000
-0.002300  79.300000
-0.003000  79.500000
-0.004600  79.100000
-0.003000  79.300000
-0.002300  79.300000
-0.003800  79.300000
-0.003000  79.400000
-0.003800  79.300000
-0.000800  79.400000
0.000000  79.500000
0.000700  79.300000
0.001500  79.400000
0.002200  79.600000
0.004500  79.200000
0.004500  79.600000
0.003700  79.200000
0.003000  79.600000
0.002200  79.300000
0.000700  79.600000
0.001500  79.400000
0.002200  79.300000
0.001500  79.500000
0.002200  79.400000
0.001500  79.300000
-0.000800  79.400000
-0.000800  79.700000
0.000700  79.300000
0.000000  79.600000
0.001500  79.300000
0.001500  79.500000
0.000700  79.500000
0.002200  79.400000
0.003000  79.600000
0.003700  79.300000
0.003700  79.600000
0.004500  79.200000
0.000000  79.900000
0.000000  79.500000
0.000000  79.600000
-0.001500  79.400000
-0.003000  79.600000
-0.002300  79.400000
-0.003000  79.600000
-0.003800  79.600000
-0.003000  79.500000
-0.002300  79.700000
-0.001500  79.500000
-0.004600  79.800000
-0.001500  79.300000
0.000700  79.900000
-0.000800  79.500000
-0.000800  79.900000
-0.002300  79.600000
-0.003000  79.700000
-0.001500  79.700000
0.000000  79.600000
0.001500  79.600000
0.002200  79.800000
0.003000  79.800000
0.004500  79.700000
0.003700  79.900000
0.003000  79.700000
0.002200  79.900000
0.001500  79.700000
0.000700  79.700000
0.001500  79.900000
0.000700  79.700000
-0.000800  79.900000
-0.001500  79.600000
-0.001500  79.900000
-0.000800  79.800000
0.000000  79.900000
-0.000800  79.900000
-0.002300  80.000000
-0.003000  79.700000
-0.001500  80.100000
-0.002300  79.800000
-0.001500  80.100000
0.000700  79.900000
0.000700  80.000000
0.000700  80.000000
0.001500  79.800000
0.001500  80.100000
0.000700  79.900000
0.000700  80.100000
0.001500  80.100000
0.003000  79.900000
0.001500  79.900000
0.000700  80.000000
0.001500  79.900000
0.000700  80.200000
-0.002300  79.900000
-0.003000  80.100000
-0.003800  80.100000
-0.002300  80.000000
-0.000800  80.200000
-0.001500  79.800000
-0.000800  80.200000
-0.001500  79.900000
-0.001500  80.400000
-0.000800  79.900000
0.000000  80.100000
0.000700  80.100000
0.001500  80.300000
0.001500  80.100000
-0.000800  80.100000
0.000000  80.400000
-0.002300  80.000000
-0.002300  80.500000
0.000700  80.100000
-0.000800  80.500000
-0.001500  80.000000
-0.001500  80.200000
-0.000800  80.200000
-0.003000  80.200000
-0.001500  80.300000
-0.000800  80.100000
-0.000800  80.300000
0.001500  80.300000
0.003000  80.400000
0.002200  80.400000
0.001500  80.500000
0.001500  80.100000
0.001500  80.400000
0.003000  80.400000
0.004500  80.300000
0.001500  80.500000
-0.000800  80.200000
-0.000800  80.500000
-0.000800  80.200000
0.000000  80.500000
0.000700  80.100000
0.001500  80.500000
0.001500  80.200000
0.000700  80.200000
0.000700  80.300000
0.000000  80.500000
0.001500  80.200000
0.004500  80.400000
0.003000  80.300000
0.001500  80.400000
0.001500  80.600000
-0.000800  80.400000
-0.001500  80.500000
-0.002300  80.300000
-0.003000  80.500000
-0.003000  80.500000
-0.001500  80.300000
0.000700  80.600000
-0.001500  80.500000
-0.001500  80.500000
-0.001500  80.500000
-0.001500  80.300000
-0.000800  80.500000
-0.000800  80.500000
0.000700  80.200000
0.000000  80.600000
-0.002300  80.200000
-0.002300  80.500000
-0.002300  80.400000
-0.001500  80.600000
0.000000  80.500000
0.000700  80.400000
0.000700  80.600000
0.000700  80.400000
-0.001500  80.600000
-0.001500  80.500000
-0.001500  80.400000
-0.001500  80.400000
-0.000800  80.800000
-0.001500  80.300000
-0.000800  80.600000
0.001500  80.400000
0.003000  80.500000
0.003000  80.700000
0.001500  80.500000
0.000700  80.700000
0.001500  80.400000
0.001500  80.600000
0.001500  80.400000
0.001500  80.500000
0.001500  80.500000
0.003700  80.700000
0.003700  80.500000
0.003700  80.600000
0.001500  80.700000
0.001500  80.500000
0.000700  80.800000
-0.000800  80.500000
-0.001500  80.700000
-0.004600  80.400000
-0.006800  80.800000
-0.006800  80.500000
-0.008300  80.800000
-0.007500  80.500000
-0.006800  80.700000
-0.006000  80.800000
-0.003000  80.600000
-0.000800  80.600000
-0.001500  80.600000
-0.001500  80.500000
0.002200  80.800000
0.005200  80.700000
0.005200  80.600000
0.004500  80.800000
0.003700  80.500000
0.002200  80.900000
0.001500  80.600000
0.000700  80.600000
0.000700  80.800000
0.001500  80.500000
0.002200  80.800000
0.003000  80.600000
0.003000  80.600000
0.003000  80.700000
0.002200  80.600000
-0.001500  80.600000
-0.003000  80.700000
-0.000800  80.500000
0.001500  80.900000
0.000700  80.500000
0.000000  81.000000
0.000000  80.500000
-0.001500  80.800000
-0.000800  80.600000
-0.000800  80.800000
-0.001500  80.700000
-0.003000  80.600000
-0.004600  80.900000
-0.004600  80.600000
-0.005300  80.600000
-0.004600  80.800000
-0.001500  81.000000
-0.001500  80.500000
-0.001500  80.900000
-0.000800  80.600000
0.000700  80.700000
0.000700  80.800000
0.000700  80.500000
0.000700  80.900000
0.003000  80.400000
0.002200  80.900000
0.001500  80.400000
0.003700  80.800000
0.001500  80.700000
0.003000  80.700000
0.005200  80.500000
0.004500  80.700000
0.004500  80.500000
0.004500  80.500000
0.005200  80.700000
0.003700  80.500000
0.003000  80.900000
0.002200  80.500000
0.000700  80.900000
0.000700  80.400000
0.001500  80.700000
0.000700  80.500000
0.000700  80.600000
0.000700  80.700000
0.000700  80.500000
0.001500  80.500000
-0.000800  80.600000
-0.002300  80.600000
-0.003000  80.400000
-0.003000  80.800000
-0.001500  80.400000
-0.003000  80.700000
-0.002300  80.500000
-0.002300  80.700000
-0.003000  80.800000
-0.002300  80.500000
-0.003000  80.800000
-0.003000  80.500000
-0.001500  80.800000
-0.000800  80.400000
0.000700  80.500000
0.001500  80.500000
0.000700  80.800000
0.000700  80.500000
0.000700  81.000000
0.000700  80.300000
0.002200  80.700000
0.001500  80.500000
0.002200  80.500000
0.003700  80.600000
0.001500  80.300000
0.002200  80.600000
-0.001500  80.500000
-0.003000  80.500000
-0.003000  80.500000
-0.004600  80.400000
-0.003800  80.600000
-0.005300  80.500000
-0.006000  80.400000
-0.007500  80.500000
-0.006000  80.500000
-0.003800  80.300000
-0.004600  80.600000
-0.003800  80.300000
-0.003000  80.700000
-0.003000  80.400000
-0.001500  80.700000
-0.000800  80.500000
-0.001500  80.500000
-0.000800  80.500000
0.003000  80.500000
0.003000  80.600000
0.001500  80.500000
0.001500  80.500000
0.003000  80.600000
0.004500  80.500000
0.003000  80.300000
0.003000  80.800000
0.002200  80.300000
0.003000  80.500000
0.004500  80.400000
0.003700  80.500000
0.001500  80.600000
-0.000800  80.400000
-0.000800  80.700000
-0.000800  80.100000
-0.000800  80.600000
0.000000  80.300000
0.000700  80.500000
0.000000  80.400000
0.000700  80.600000
0.001500  80.600000
0.000700  80.600000
0.003000  80.500000
0.002200  80.500000
0.003000  80.500000
0.001500  80.400000
0.000000  80.800000
0.000000  80.100000
-0.002300  80.700000
-0.000800  80.400000
-0.002300  80.600000
-0.001500  80.500000
0.000700  80.400000
0.000700  80.500000
0.003700  80.500000
0.003000  80.600000
0.000700  80.600000
0.000700  80.500000
0.000000  80.500000
0.000700  80.500000
0.000700  80.300000
0.001500  80.700000
-0.000800  80.300000
-0.001500  80.700000
0.000000  80.600000
0.000700  80.500000
0.001500  80.800000
-0.000800  80.500000
-0.001500  80.800000
0.000700  80.500000
0.003000  80.500000
0.004500  80.600000
0.003000  80.600000
0.001500  80.200000
0.000700  80.800000
0.001500  80.300000
0.000000  80.800000
-0.003000  80.500000
-0.004600  80.500000
-0.005300  80.500000
-0.004600  80.500000
-0.003800  80.500000
-0.002300  80.500000
-0.002300  80.600000
-0.003000  80.500000
-0.003800  80.600000
-0.003000  80.500000
-0.003000  80.600000
-0.004600  80.400000
-0.004600  80.600000
-0.005300  80.500000
-0.003000  80.500000
-0.003000  80.600000
-0.004600  80.400000
-0.000800  80.700000
0.003000  80.500000
0.003000  80.800000
0.003000  80.300000
0.004500  80.800000
0.003700  80.400000
0.003700  80.700000
0.004500  80.800000
0.003700  80.700000
0.003700  80.700000
0.004500  80.600000
0.003000  80.800000
0.003700  80.400000
0.003700  80.900000
0.000700  80.500000
0.000000  81.000000
0.000000  80.500000
0.001500  80.800000
0.000700  80.500000
0.001500  80.900000
0.004500  80.600000
0.006700  80.700000
0.005200  80.800000
0.001500  80.800000
0.000000  80.800000
-0.000800  80.800000
-0.002300  80.500000
-0.004600  80.700000
-0.002300  80.800000
-0.001500  80.500000
-0.004600  80.800000
-0.001500  80.500000
-0.000800  80.800000
-0.003000  80.700000
-0.004600  80.700000
-0.003800  80.800000
-0.003000  80.500000
-0.001500  80.800000
-0.001500  80.500000
-0.001500  80.600000
-0.001500  80.700000
-0.001500  80.800000
0.001500  80.500000
0.002200  80.900000
0.002200  80.500000
0.001500  81.000000
0.000700  80.500000
0.003000  80.700000
0.000700  80.700000
-0.000800  80.600000
0.000700  81.000000
0.000700  80.500000
0.001500  80.800000
0.003000  80.500000
0.004500  80.600000
0.001500  80.700000
0.000000  80.800000
-0.001500  80.700000
-0.004600  80.800000
-0.004600  80.500000
-0.004600  80.900000
-0.002300  80.600000
-0.003000  80.800000
-0.000800  80.800000
0.000700  80.500000
0.000700  80.800000
0.001500  80.500000
0.000700  80.800000
0.000700  80.500000
-0.001500  80.900000
-0.002300  80.700000
0.000700  80.700000
0.000700  80.700000
-0.001500  80.700000
-0.000800  80.800000
-0.001500  80.800000
-0.002300  80.800000
-0.003800  80.600000
-0.003000  80.800000
-0.000800  80.500000
0.000000  81.000000
0.001500  80.500000
0.000700  80.900000
0.001500  80.700000
0.003000  80.800000
0.001500  80.800000
0.001500  80.600000
0.000000  80.800000
-0.002300  80.700000
-0.003000  80.700000
-0.003800  80.700000
-0.006000  80.900000
-0.004600  80.500000
-0.001500  80.900000
-0.001500  80.600000
-0.001500  80.800000
-0.000800  80.700000
0.003700  80.800000
0.003700  80.800000
0.003000  80.500000
0.003000  80.900000
0.003000  80.500000
0.003000  80.800000
0.003000  80.600000
0.002200  80.500000
0.000700  80.600000
0.000700  81.000000
0.003000  80.500000
0.003000  80.900000
0.003700  80.500000
0.002200  80.700000
0.000700  80.900000
0.001500  80.600000
0.001500  80.900000
0.001500  80.500000
0.000000  80.700000
-0.000800  80.800000
-0.001500  80.500000
-0.001500  81.000000
0.000000  80.700000
0.000700  80.700000
-0.000800  80.900000
-0.001500  80.700000
-0.000800  80.800000
-0.000800  81.100000
-0.000800  80.500000
0.000000  81.000000
0.000000  80.500000
-0.000800  80.900000
-0.000800  80.500000
-0.001500  80.800000
-0.003000  80.700000
-0.000800  80.700000
-0.000800  80.800000
-0.000800  80.700000
0.000700  80.700000
0.001500  80.500000
0.001500  80.700000
0.000700  80.500000
-0.001500  80.800000
-0.003000  80.500000
-0.001500  80.900000
-0.001500  80.700000
-0.001500  80.500000
-0.002300  80.800000
0.000000  80.600000
0.002200  80.900000
0.003000  80.500000
0.003700  80.900000
0.003000  80.500000
0.002200  80.600000
0.000700  80.700000
-0.000800  80.600000
-0.001500  80.800000
-0.003800  80.700000
-0.004600  80.700000
-0.000800  80.500000
-0.001500  80.900000
-0.003000  80.600000
-0.003000  81.000000
-0.003000  80.400000
-0.000800  80.800000
0.000700  80.600000
0.000000  80.800000
0.000700  80.700000
0.002200  80.600000
0.001500  80.700000
0.000700  80.600000
0.003700  80.500000
0.002200  80.700000
0.000000  80.800000
0.002200  80.500000
0.002200  80.800000
0.001500  80.600000
0.001500  80.700000
0.003700  80.800000
0.003700  80.500000
0.003000  80.800000
0.003000  80.500000
0.000000  80.800000
0.000700  80.500000
0.000000  80.800000
-0.000800  80.700000
0.000000  80.800000
0.000700  80.700000
0.000700  80.600000
0.000700  80.500000
0.003000  80.800000
0.003000  80.500000
0.003700  80.600000
0.003700  80.600000
0.001500  80.500000
0.000000  80.800000
0.001500  80.600000
0.000700  80.700000
-0.000800  80.700000
-0.000800  80.500000
-0.001500  80.700000
-0.002300  80.500000
-0.003000  80.600000
-0.004600  80.600000
-0.004600  80.500000
-0.003000  80.500000
-0.003000  80.800000
-0.003800  80.400000
-0.004600  80.800000
-0.004600  80.500000
-0.006000  80.800000
-0.006800  80.500000
-0.006000  80.600000
-0.005300  80.700000
-0.002300  80.500000
-0.002300  80.800000
-0.000800  80.500000
0.000700  80.600000
0.000700  80.800000
0.000700  80.600000
0.000700  80.500000
0.000700  80.800000
-0.000800  80.500000
-0.001500  80.600000
0.000700  80.800000
0.004500  80.500000
0.004500  80.900000
0.005200  80.400000
0.005200  80.800000
0.002200  80.300000
0.000700  80.800000
-0.001500  80.500000
-0.003000  80.600000
-0.000800  80.500000
0.000700  80.500000
0.000000  80.600000
0.000700  80.500000
0.002200  80.800000
0.002200  80.300000
0.002200  80.800000
0.000700  80.500000
0.002200  80.800000
0.003000  80.500000
0.001500  80.500000
0.003000  80.700000
0.000000  80.400000
-0.002300  80.900000
-0.003000  80.400000
-0.001500  80.800000
0.000700  80.600000
0.000700  80.600000
0.000700  80.600000
0.001500  80.600000
0.002200  80.500000
0.001500  80.500000
0.002200  80.600000
0.001500  80.500000
-0.000800  80.800000
-0.001500  80.400000
-0.002300  80.800000
-0.003000  80.300000
-0.003000  80.800000
-0.002300  80.400000
-0.003000  80.600000
-0.003000  80.600000
-0.003800  80.500000
-0.003000  80.500000
-0.004600  80.500000
-0.006800  80.400000
-0.005300  80.500000
-0.001500  80.600000
0.002200  80.400000
0.001500  80.700000
0.000000  80.400000
-0.003000  80.500000
-0.001500  80.500000
-0.002300  80.500000
-0.001500  80.800000
-0.000800  80.300000
-0.000800  80.700000
0.003700  80.300000
0.001500  80.500000
0.000700  80.500000
0.003000  80.500000
0.005200  80.300000
0.003000  80.800000
0.003000  80.200000
0.003700  80.700000
0.003000  80.300000
0.003000  80.400000
0.003000  80.500000
0.001500  80.300000
-0.000800  80.500000
-0.000800  80.300000
-0.001500  80.500000
0.000000  80.300000
-0.000800  80.300000
-0.000800  80.400000
-0.001500  80.400000
-0.001500  80.400000
-0.001500  80.500000
-0.001500  80.300000
0.001500  80.400000
0.001500  80.500000
-0.000800  80.200000
-0.001500  80.600000
-0.000800  80.100000
0.000700  80.500000
0.000700  80.200000
0.000700  80.400000
-0.000800  80.200000
-0.003800  80.200000
-0.005300  80.300000
-0.003800  80.300000
-0.001500  80.200000
-0.003000  80.500000
-0.002300  80.400000
-0.000800  80.200000
0.000700  80.500000
0.002200  80.100000
0.001500  80.500000
0.004500  80.200000
0.005200  80.500000
0.004500  80.200000
0.003000  80.100000
0.001500  80.500000
0.000000  80.100000
-0.003000  80.500000
-0.003000  80.100000
-0.001500  80.400000
0.000000  80.300000
0.001500  80.300000
0.003000  80.200000
0.005200  80.500000
0.005200  80.200000
0.006700  80.100000
0.009000  80.400000
0.004500  80.100000
0.001500  80.500000
0.000000  80.100000
-0.000800  80.600000
0.003000  80.100000
0.002200  80.500000
0.000700  80.200000
0.000700  80.100000
-0.001500  80.300000
-0.003000  80.400000
-0.001500  80.100000
-0.003000  80.400000
-0.000800  80.200000
-0.003000  80.200000
-0.003800  80.200000
0.000000  80.100000
-0.000800  80.300000
-0.001500  80.100000
-0.001500  80.300000
-0.001500  80.100000
-0.003000  80.200000
0.000000  80.300000
-0.000800  80.100000
-0.002300  80.400000
-0.001500  80.400000
-0.001500  80.100000
-0.001500  80.200000
-0.002300  80.300000
-0.000800  80.000000
-0.001500  80.500000
-0.002300  80.100000
-0.001500  80.200000
-0.000800  80.200000
0.000700  80.200000
0.002200  80.200000
0.001500  80.200000
0.000700  80.400000
0.000700  80.000000
0.000700  80.500000
0.000700  80.200000
-0.003000  80.300000
-0.003800  80.200000
-0.000800  80.300000
-0.000800  80.100000
0.000000  80.500000
-0.001500  80.100000
-0.003000  80.200000
-0.000800  80.300000
0.001500  80.100000
0.003000  80.500000
0.000700  79.900000
0.000700  80.400000
0.000000  80.100000
-0.003000  80.300000
-0.000800  80.100000
-0.000800  80.100000
-0.000800  80.200000
0.000700  80.200000
0.001500  80.300000
0.001500  80.100000
-0.000800  80.300000
-0.000800  80.000000
0.000000  80.400000
-0.000800  80.100000
-0.001500  80.200000
-0.000800  80.200000
-0.000800  80.100000
0.000700  80.400000
0.001500  80.000000
0.000700  80.500000
0.000700  79.900000
-0.001500  80.100000
-0.001500  80.100000
-0.000800  80.200000
-0.001500  80.200000
-0.001500  80.200000
-0.001500  80.100000
0.000700  80.100000
0.001500  80.200000
0.003000  79.900000
0.004500  80.500000
0.003000  79.900000
0.002200  80.300000
0.000700  80.000000
0.000700  80.200000
0.000700  80.100000
0.000700  80.200000
0.001500  80.200000
-0.000800  80.200000
-0.001500  80.000000
-0.001500  80.200000
-0.001500  80.200000
-0.000800  80.000000
-0.000800  80.300000
0.000700  80.000000
0.001500  80.400000
0.001500  80.100000
0.000700  80.200000
0.000700  80.300000
0.000700  79.900000
-0.000800  80.400000
-0.000800  80.100000
-0.001500  80.300000
-0.002300  80.100000
-0.000800  80.200000
0.001500  80.100000
0.000700  80.100000
0.003000  80.100000
0.003000  80.400000
0.000700  80.000000
0.001500  80.400000
0.001500  80.000000
0.000700  80.500000
-0.000800  80.100000
-0.000800  80.400000
0.000700  80.200000
0.001500  80.100000
0.002200  80.200000
0.001500  80.100000
0.000700  80.100000
-0.000800  80.400000
-0.001500  80.200000
-0.001500  80.400000
-0.001500  80.500000
-0.003800  80.100000
-0.003000  80.400000
-0.003000  80.200000
-0.001500  80.200000
-0.002300  80.200000
-0.004600  80.000000
-0.003000  80.500000
-0.000800  80.100000
0.001500  80.500000
0.001500  80.000000
0.000000  80.400000
0.000000  80.400000
0.001500  80.200000
0.005200  80.300000
0.006000  80.300000
0.003000  80.200000
-0.001500  80.400000
-0.001500  80.300000
-0.001500  80.200000
-0.003000  80.400000
-0.003000  80.100000
-0.002300  80.600000
-0.001500  80.100000
-0.001500  80.500000
-0.002300  80.200000
-0.003000  80.400000
-0.000800  80.300000
0.000000  80.400000
-0.002300  80.200000
-0.003800  80.300000
-0.005300  80.400000
-0.004600  80.200000
-0.003000  80.500000
-0.001500  80.200000
0.001500  80.400000
0.003700  80.200000
0.003000  80.400000
0.003700  80.400000
0.003000  80.200000
0.003700  80.500000
0.003700  80.200000
0.003000  80.600000
0.003000  80.200000
0.004500  80.300000
0.007500  80.400000
0.006700  80.400000
0.005200  80.200000
0.006700  80.500000
0.006700  80.100000
0.006000  80.600000
0.003000  80.300000
-0.000800  80.400000
-0.001500  80.500000
-0.002300  80.300000
-0.002300  80.500000
-0.005300  80.300000
-0.005300  80.500000
-0.005300  80.400000
-0.006800  80.300000
-0.006000  80.500000
-0.004600  80.200000
-0.001500  80.300000
0.000000  80.600000
0.001500  80.500000
0.001500  80.200000
0.003000  80.700000
0.001500  80.200000
0.000700  80.600000
0.002200  80.200000
0.001500  80.700000
0.001500  80.400000
0.000700  80.400000
0.000700  80.600000
0.000700  80.300000
-0.001500  80.700000
-0.001500  80.500000
-0.002300  80.500000
-0.003000  80.500000
-0.003000  80.500000
-0.003000  80.200000
-0.004600  80.600000
-0.003000  80.400000
-0.002300  80.700000
-0.002300  80.500000
-0.001500  80.500000
-0.000800  80.800000
0.001500  80.300000
-0.000800  80.700000
-0.000800  80.300000
0.000700  80.700000
0.000000  80.600000
-0.001500  80.700000
-0.000800  80.500000
-0.001500  80.500000
-0.003000  80.600000
-0.003000  80.500000
-0.001500  80.800000
0.000700  80.300000
0.000000  80.900000
-0.000800  80.500000
0.000700  80.800000
0.001500  80.400000
0.001500  80.600000
0.001500  80.700000
0.000700  80.500000
0.000700  80.700000
-0.000800  80.500000
0.000700  80.600000
0.001500  80.600000
0.000700  80.600000
0.000700  80.600000
0.000700  80.800000
0.001500  80.600000
0.001500  80.600000
0.001500  80.800000
0.003000  80.600000
0.000700  80.800000
-0.002300  80.500000
-0.003800  80.900000
-0.003000  80.500000
-0.000800  80.900000
0.000700  80.500000
0.000700  80.700000
0.001500  80.700000
0.005200  80.700000
0.005200  80.800000
0.003000  80.800000
0.001500  80.700000
0.000700  80.800000
0.000700  80.800000
-0.001500  80.600000
-0.001500  80.900000
-0.002300  80.500000
-0.001500  80.800000
-0.001500  80.900000
-0.002300  80.600000
0.000700  81.000000
0.000000  80.600000
0.000700  81.000000
0.002200  80.700000
0.000700  80.900000
0.001500  80.800000
-0.000800  80.800000
-0.005300  80.600000
-0.003000  81.000000
-0.003000  80.500000
-0.000800  81.000000
0.001500  80.600000
0.002200  81.000000
0.001500  80.700000
0.003000  80.900000
0.002200  81.000000
0.000700  80.700000
-0.000800  81.000000
-0.001500  80.800000
-0.000800  80.800000
-0.000800  80.800000
-0.000800  80.800000
0.002200  80.600000
0.001500  81.000000
0.000700  80.700000
0.000000  80.900000
-0.003000  80.900000
-0.003800  80.700000
-0.005300  81.100000
-0.005300  80.600000
-0.005300  81.100000
-0.005300  80.800000
-0.003800  81.100000
-0.003800  80.900000
-0.004600  80.800000
-0.003800  80.900000
-0.002300  80.800000
0.000700  80.800000
0.003000  80.800000
0.005200  81.000000
0.008200  80.800000
0.008200  81.100000
0.007500  80.600000
0.006700  81.000000
0.003000  80.800000
0.000700  81.000000
-0.000800  80.900000
0.000000  80.900000
0.001500  81.000000
0.003700  80.700000
0.005200  81.000000
0.006000  80.900000
0.005200  80.800000
0.001500  81.000000
-0.003000  81.100000
-0.005300  80.800000
-0.009100  81.000000
-0.010500  80.800000
-0.013500  80.900000
-0.014300  81.000000
-0.012800  80.800000
-0.014300  81.100000
-0.010500  80.700000
-0.004600  81.100000
0.000700  80.800000
0.008200  81.200000
0.014200  80.800000
0.018700  80.900000
0.018000  80.900000
0.015700  80.800000
0.012700  80.600000
0.009700  81.100000
0.006700  80.600000
0.006700  81.000000
0.006700  80.700000
0.009000  80.800000
0.006700  81.000000
0.004500  80.700000
0.006000  81.000000
0.005200  80.600000
0.005200  81.000000
0.004500  80.700000
-0.000800  80.800000
-0.002300  80.800000
-0.005300  80.900000
-0.006800  80.700000
-0.009100  80.800000
-0.012000  80.800000
-0.013500  80.700000
-0.014300  80.900000
-0.015800  80.500000
-0.018800  81.000000
-0.018100  80.500000
-0.012800  80.900000
-0.007500  80.500000
-0.002300  81.000000
0.001500  80.500000
0.002200  80.800000
0.004500  80.700000
0.007500  80.600000
0.006000  80.600000
0.006000  80.500000
0.004500  80.700000
0.004500  80.500000
0.005200  80.800000
0.005200  80.400000
0.003000  80.700000
0.001500  80.300000
0.001500  80.700000
0.000700  80.500000
0.000700  80.500000
0.000700  80.500000
-0.002300  80.500000
-0.002300  80.500000
-0.001500  80.500000
-0.003000  80.400000
-0.003000  80.400000
-0.004600  80.400000
-0.008300  80.300000
-0.008300  80.500000
-0.007500  80.300000
-0.009100  80.500000
-0.006800  80.500000
-0.004600  80.400000
0.001500  80.400000
0.005200  80.200000
0.006700  80.500000
0.009700  80.100000
0.010500  80.500000
0.008200  80.000000
0.005200  80.300000
0.004500  80.300000
0.001500  80.200000
0.001500  80.100000
0.001500  80.500000
0.001500  79.900000
0.001500  80.400000
0.001500  80.100000
0.001500  80.300000
-0.002300  80.200000
-0.006800  80.100000
-0.009100  80.400000
-0.010500  79.900000
-0.012000  80.400000
-0.012000  80.100000
-0.008300  80.200000
-0.003000  80.200000
-0.000800  80.000000
0.003700  80.200000
0.008200  80.300000
0.007500  80.200000
0.006000  80.200000
0.006700  80.400000
0.006700  80.100000
0.006700  80.500000
0.006700  80.200000
0.005200  80.500000
0.004500  80.200000
0.003700  80.500000
0.003000  80.400000
0.001500  80.200000
-0.001500  80.500000
-0.000800  80.500000
0.000700  80.600000
0.000700  80.300000
-0.000800  80.400000
-0.001500  80.200000
0.000700  80.700000
0.001500  80.200000
0.000700  80.600000
-0.000800  80.500000
-0.000800  80.500000
0.000000  80.600000
-0.000800  80.300000
0.000700  80.800000
-0.000800  80.200000
-0.003800  80.900000
-0.003000  80.500000
-0.002300  80.600000
-0.001500  80.700000
-0.001500  80.700000
-0.001500  80.600000
-0.002300  80.600000
-0.002300  80.800000
-0.001500  80.500000
-0.000800  80.900000
-0.002300  80.500000
-0.003000  81.000000
-0.001500  80.600000
-0.003000  81.000000
-0.001500  80.600000
-0.000800  80.900000
0.000700  80.900000
0.000700  80.700000
-0.001500  81.000000
-0.000800  80.900000
0.001500  80.900000
0.001500  81.000000
0.001500  81.000000
0.003000  80.700000
0.002200  81.000000
0.001500  80.900000
0.004500  81.000000
0.005200  81.000000
0.004500  80.900000
0.004500  81.200000
0.005200  80.800000
0.003000  81.300000
0.000700  80.900000
-0.001500  81.000000
-0.004600  81.000000
-0.005300  81.000000
-0.005300  81.100000
-0.003000  81.400000
-0.003000  80.900000
-0.004600  81.100000
-0.003800  81.200000
-0.004600  81.100000
-0.001500  81.200000
-0.000800  81.000000
0.000000  81.300000
0.003000  81.000000
0.000700  81.300000
-0.002300  81.400000
-0.004600  81.100000
-0.005300  81.400000
-0.006000  81.200000
-0.005300  81.200000
-0.005300  81.300000
-0.005300  81.100000
-0.003000  81.200000
0.000700  81.400000
0.002200  81.000000
0.004500  81.500000
0.003700  81.000000
0.003700  81.400000
0.004500  81.100000
0.005200  81.200000
0.009000  81.300000
0.007500  81.100000
0.003700  81.400000
0.002200  81.100000
0.004500  81.300000
0.005200  81.300000
0.000700  81.200000
-0.001500  81.100000
-0.000800  81.400000
0.000000  81.200000
-0.001500  81.300000
-0.003800  81.200000
-0.003000  81.200000
-0.003000  81.400000
-0.002300  81.000000
-0.000800  81.400000
0.000700  81.100000
0.000700  81.400000
-0.001500  81.100000
0.000700  81.100000
0.000700  81.400000
-0.000800  81.200000
0.000000  81.100000
0.000700  81.200000
0.001500  81.400000
0.000700  81.000000
-0.000800  81.400000
0.000700  80.900000
-0.001500  81.300000
-0.001500  81.000000
-0.003000  81.200000
-0.005300  81.000000
-0.003000  81.000000
-0.001500  81.300000
-0.002300  81.000000
-0.003000  81.300000
-0.003000  81.100000
0.000700  81.000000
0.003000  81.000000
0.003000  81.200000
0.002200  81.000000
0.003000  81.100000
0.001500  81.000000
0.000700  80.900000
0.000700  81.200000
-0.000800  80.800000
0.000700  81.100000
0.002200  80.600000
0.001500  81.000000
-0.000800  80.600000
-0.000800  81.000000
0.000700  80.800000
-0.001500  80.800000
-0.003000  80.900000
-0.000800  80.700000
0.001500  80.400000
0.005200  80.900000
0.005200  80.500000
0.001500  80.700000
0.002200  80.500000
0.003000  80.500000
0.004500  80.500000
0.005200  80.200000
0.003000  80.500000
0.000700  80.100000
-0.002300  80.200000
-0.001500  80.200000
0.000000  79.900000
0.000000  80.000000
-0.000800  80.000000
0.000000  80.000000
0.001500  79.900000
0.003000  79.800000
0.001500  79.600000
-0.001500  80.000000
-0.001500  79.500000
-0.003000  79.900000
-0.001500  79.400000
-0.000800  79.800000
-0.001500  79.200000
-0.002300  79.500000
-0.006000  79.200000
-0.007500  79.200000
-0.004600  79.100000
-0.005300  79.100000
-0.004600  79.100000
-0.002300  78.900000
-0.003800  78.900000
-0.003000  78.600000
-0.002300  79.000000
-0.000800  78.500000
-0.000800  78.700000
-0.003800  78.300000
-0.003800  78.500000
-0.001500  78.200000
0.000000  78.200000
0.002200  78.300000
0.005200  77.900000
0.005200  78.100000
0.003000  77.800000
0.002200  77.800000
0.001500  77.700000
0.002200  77.600000
-0.000800  77.300000
-0.001500  77.500000
-0.003000  77.300000
-0.002300  77.100000
-0.003000  77.100000
-0.003000  76.900000
0.001500  77.200000
0.002200  76.600000
0.001500  77.000000
-0.000800  76.300000
-0.000800  76.700000
0.003000  76.300000
0.003000  76.400000
0.000700  76.100000
-0.001500  76.000000
-0.001500  76.000000
0.000700  76.000000
-0.000800  75.600000
-0.003000  75.600000
-0.003000  75.600000
-0.004600  75.100000
-0.004600  75.400000
-0.001500  75.100000
0.000700  75.100000
0.002200  75.000000
0.002200  74.700000
0.004500  74.900000
0.006000  74.500000
0.009700  74.700000
0.011200  74.400000
0.011200  74.300000
0.008200  74.200000
0.005200  74.300000
0.005200  73.600000
0.001500  74.100000
-0.001500  73.600000
-0.004600  73.600000
-0.008300  73.500000
-0.009100  73.300000
-0.008300  73.400000
-0.004600  73.100000
-0.003000  73.200000
-0.003000  72.800000
-0.003800  72.800000
-0.003000  72.600000
-0.001500  72.400000
-0.003000  72.400000
-0.004600  72.200000
-0.006000  72.100000
-0.003800  72.100000
-0.003000  72.000000
-0.003800  71.600000
-0.000800  71.800000
-0.000800  71.400000
0.001500  71.700000
0.004500  71.100000
0.007500  71.300000
0.009000  71.000000
0.006000  71.000000
0.006000  70.900000
0.003700  70.700000
0.003700  70.500000
0.003000  70.300000
0.000700  70.200000
0.002200  70.000000
0.001500  70.200000
0.002200  69.700000
0.000700  70.000000
-0.001500  69.500000
-0.003000  69.600000
-0.003800  69.400000
-0.004600  69.100000
-0.004600  69.300000
-0.004600  68.900000
-0.003800  69.100000
-0.001500  68.600000
-0.000800  68.800000
-0.000800  68.800000
0.000700  68.700000
0.002200  68.600000
0.003000  68.700000
0.005200  68.300000
0.006000  68.500000
0.004500  68.400000
0.004500  68.200000
0.005200  68.300000
0.004500  67.900000
0.003000  68.200000
0.001500  67.800000
-0.000800  68.100000
-0.000800  67.500000
-0.000800  67.600000
-0.003800  67.500000
-0.004600  67.300000
-0.005300  67.200000
-0.006800  67.100000
-0.006800  66.900000
-0.003000  66.900000
-0.001500  66.700000
-0.001500  66.600000
-0.003000  66.600000
-0.004600  66.300000
-0.004600  66.300000
-0.001500  66.000000
0.000700  65.900000
0.000700  65.700000
-0.000800  65.600000
0.001500  65.600000
0.003000  65.300000
0.003000  65.200000
0.003000  65.200000
0.000700  64.800000
0.000700  64.700000
0.000000  64.800000
0.000700  64.500000
0.002200  64.800000
0.000700  64.100000
0.000700  64.500000
-0.000800  64.000000
-0.003000  64.300000
-0.004600  64.000000
-0.004600  63.800000
-0.005300  63.900000
-0.004600  63.600000
-0.001500  63.600000
0.000000  63.300000
0.000700  63.400000
0.000700  63.200000
0.001500  63.400000
0.006000  62.900000
0.006700  63.100000
0.008200  62.700000
0.009000  62.800000
0.008200  62.700000
0.006000  62.500000
0.004500  62.500000
0.003000  62.300000
0.001500  62.400000
-0.000800  61.700000
-0.000800  62.000000
-0.001500  61.700000
-0.001500  61.700000
0.000000  61.500000
0.000700  61.400000
0.000000  61.200000
0.000000  61.200000
-0.000800  61.000000
-0.003000  60.800000
-0.002300  61.000000
-0.003800  60.500000
-0.003000  60.800000
-0.000800  60.200000
-0.001500  60.600000
-0.001500  60.000000
-0.001500  60.400000
0.000000  60.100000
-0.000800  60.000000
-0.002300  59.900000
-0.000800  59.900000
0.000700  59.500000
0.000700  59.700000
-0.000800  59.400000
-0.000800  59.300000
-0.003000  59.400000
-0.003800  58.900000
-0.000800  59.100000
0.000700  58.800000
-0.000800  58.900000
-0.001500  58.700000
-0.000800  58.600000
-0.003800  58.600000
-0.005300  58.000000
-0.003800  58.200000
-0.003000  58.200000
-0.000800  58.100000
0.001500  58.000000
0.000700  58.000000
0.000000  57.600000
0.000700  57.800000
0.001500  57.300000
0.002200  57.600000
0.002200  56.900000
0.002200  57.400000
0.002200  57.000000
0.000700  56.900000
-0.001500  56.900000
-0.004600  56.600000
-0.006000  56.700000
-0.006000  56.400000
-0.002300  56.400000
0.000000  56.300000
0.000700  56.300000
0.001500  55.900000
0.004500  56.000000
0.006700  55.700000
0.006700  55.600000
0.008200  55.600000
0.006700  55.300000
0.004500  55.600000
0.004500  55.000000
0.000700  55.300000
-0.002300  54.800000
-0.005300  55.100000
-0.004600  54.900000
-0.003000  54.700000
-0.007500  54.600000
-0.012000  54.600000
-0.006800  54.400000
-0.001500  54.200000
0.001500  54.400000
0.009000  53.800000
0.012000  54.400000
0.010500  53.700000
0.007500  53.900000
0.005200  53.600000
0.003700  53.700000
0.003000  53.600000
0.001500  53.200000
0.002200  53.500000
0.001500  53.100000
-0.003000  53.100000
-0.003000  52.900000
-0.001500  52.900000
-0.005300  52.600000
-0.003000  52.800000
-0.001500  52.700000
-0.000800  52.400000
0.001500  52.500000
0.004500  52.200000
0.003000  52.400000
0.002200  51.800000
0.002200  52.200000
-0.002300  51.700000
-0.004600  51.700000
-0.004600  51.600000
-0.005300  51.300000
-0.007500  51.500000
-0.008300  51.300000
-0.005300  51.200000
-0.004600  51.000000
-0.006000  51.000000
-0.005300  50.800000
-0.003000  50.900000
-0.000800  50.500000
0.002200  50.700000
0.003700  50.400000
0.001500  50.400000
0.001500  50.300000
0.003000  50.100000
0.005200  50.200000
0.005200  49.800000
0.006000  49.900000
0.005200  49.700000
0.002200  49.500000
0.000000  49.600000
-0.001500  49.500000
-0.003000  49.000000
-0.001500  49.500000
0.000000  49.000000
0.001500  49.200000
0.002200  48.600000
-0.000800  48.800000
-0.000800  48.600000
-0.001500  48.400000
-0.003000  48.600000
-0.003000  48.200000
-0.002300  48.400000
-0.003000  48.100000
-0.005300  48.000000
-0.003000  48.000000
0.000000  47.800000
0.003700  47.500000
0.007500  47.800000
0.006700  47.200000
0.004500  47.500000
0.003000  47.200000
0.003000  47.200000
0.001500  47.100000
-0.002300  46.800000
-0.007500  47.000000
-0.009100  46.400000
-0.004600  46.800000
0.005200  46.300000
0.010500  46.500000
0.002200  46.300000
-0.006800  46.100000
-0.012000  46.100000
-0.012800  46.000000
-0.008300  45.900000
-0.005300  45.600000
-0.001500  45.800000
-0.000800  45.500000
0.001500  45.600000
0.008200  45.100000
0.009000  45.500000
0.012700  44.900000
0.013500  45.200000
0.009700  44.800000
0.009000  44.700000
0.010500  44.700000
0.005200  44.500000
0.001500  44.600000
0.004500  44.400000
0.004500  44.100000
-0.001500  44.300000
-0.003000  44.100000
-0.003000  44.000000
-0.006800  44.100000
-0.005300  43.600000
-0.004600  43.700000
-0.006000  43.400000
-0.013500  43.400000
-0.026300  43.200000
-0.035300  43.000000
-0.030800  43.300000
-0.011300  42.900000
0.000700  42.800000
0.009000  42.700000
0.016500  42.600000
0.019500  42.300000
0.021700  42.500000
0.016500  42.000000
0.016500  42.300000
0.021000  41.800000
0.025500  41.900000
0.028500  41.800000
0.024000  41.700000
0.012000  41.500000
0.000700  41.200000
-0.008300  41.400000
-0.012800  41.100000
-0.012800  40.900000
-0.012000  40.900000
-0.012800  40.800000
-0.010500  40.600000
-0.009100  40.800000
-0.009100  40.100000
-0.008300  40.500000
-0.005300  40.000000
-0.004600  40.000000
-0.003800  40.100000
-0.005300  39.700000
-0.008300  39.800000
-0.006800  39.300000
-0.002300  39.600000
0.001500  39.100000
0.003000  39.200000
0.005200  39.100000
0.003700  38.800000
0.003000  38.700000
0.001500  38.800000
-0.003800  38.600000
-0.002300  38.300000
0.003000  38.600000
0.003700  38.000000
0.005200  38.200000
0.000700  37.700000
-0.001500  37.900000
0.010500  37.400000
0.015700  37.500000
0.006700  37.400000
-0.003000  37.200000
-0.012000  37.200000
-0.016500  36.900000
-0.006800  36.900000
-0.000800  36.800000
0.001500  36.500000
0.003700  36.300000
0.004500  36.500000
0.006000  36.100000
0.009000  36.200000
0.012000  35.800000
0.014200  35.800000
0.020200  35.700000
0.018000  35.400000
0.005200  35.500000
0.000700  35.100000
0.008200  35.400000
0.011200  34.800000
-0.004600  34.800000
-0.013500  34.700000
-0.024000  34.700000
-0.033000  34.500000
-0.027800  34.700000
-0.021800  34.000000
-0.019500  34.400000
-0.018100  33.900000
-0.018100  33.900000
-0.010500  33.700000
0.001500  33.600000
0.006700  33.700000
0.009700  33.300000
0.012700  33.700000
0.012000  33.200000
0.013500  33.200000
0.004500  33.000000
-0.005300  33.000000
-0.005300  32.800000
-0.012000  32.800000
-0.012000  32.400000
-0.004600  32.700000
-0.000800  32.300000
0.004500  32.300000
0.008200  32.200000
0.014200  31.900000
0.014200  32.100000
0.011200  31.600000
0.018700  32.000000
0.021700  31.600000
0.018000  31.900000
0.014200  31.600000
0.010500  31.300000
0.003000  31.300000
-0.006800  31.300000
-0.012000  31.100000
-0.025600  31.000000
-0.052500  31.200000
-0.074300  30.500000
-0.061500  30.900000
-0.038300  30.500000
-0.016500  30.700000
0.006700  30.400000
0.010500  30.200000
0.018000  30.400000
0.027700  30.000000
0.045000  30.100000
0.063700  29.700000
0.072700  29.800000
0.081700  29.700000
0.066700  29.500000
0.030000  29.300000
0.001500  29.600000
-0.008300  29.100000
-0.012800  29.300000
-0.012800  29.100000
-0.018100  28.900000
-0.022500  29.000000
-0.020300  28.700000
-0.019500  28.800000
-0.020300  28.400000
-0.017300  28.800000
-0.009800  28.300000
-0.004600  28.600000
-0.003000  28.300000
-0.004600  28.100000
-0.010500  28.000000
-0.027000  28.200000
-0.029300  27.600000
-0.024000  27.900000
-0.013500  27.700000
0.005200  27.500000
0.010500  27.600000
0.009000  27.200000
0.008200  27.400000
0.012700  27.000000
0.011200  27.200000
0.006700  27.000000
0.007500  27.000000
-0.004600  27.000000
-0.006800  26.800000
-0.003800  26.700000
-0.004600  26.500000
-0.003000  26.400000
-0.000800  26.300000
0.012700  26.400000
0.018700  26.000000
0.006700  26.300000
-0.003000  25.700000
-0.009100  26.100000
-0.010500  25.700000
-0.012800  25.900000
-0.019500  25.600000
-0.018100  25.500000
-0.008300  25.500000
0.000700  25.300000
0.010500  25.200000
0.012700  25.100000
0.001500  25.000000
-0.008300  24.700000
-0.008300  25.000000
-0.009100  24.400000
-0.005300  24.700000
-0.001500  24.400000
0.000700  24.400000
0.006700  24.400000
0.012000  24.100000
0.015700  24.400000
0.015700  23.800000
0.012700  24.100000
0.014200  23.700000
0.027700  23.700000
0.060000  23.600000
0.069000  23.500000
0.027700  23.400000
-0.009100  23.300000
-0.030800  23.300000
-0.039800  23.200000
-0.030000  23.400000
-0.023300  22.800000
-0.019500  23.000000
-0.016500  22.500000
-0.006000  22.900000
-0.003000  22.500000
-0.012000  22.500000
-0.014300  22.500000
-0.024000  22.400000
-0.024800  22.500000
-0.021800  22.200000
-0.018100  22.000000
-0.011300  22.100000
-0.009100  22.000000
-0.003000  21.800000
0.001500  22.000000
0.008200  21.600000
0.019500  21.800000
0.025500  21.700000
0.021700  21.400000
0.016500  21.600000
0.010500  21.200000
0.006000  21.500000
0.003000  21.100000
0.000700  21.500000
0.006700  21.100000
0.009700  21.200000
-0.003000  21.100000
-0.034600  20.900000
-0.048800  20.600000
-0.033000  21.100000
-0.013500  20.600000
0.005200  20.900000
0.019500  20.600000
0.024000  20.600000
0.024000  20.600000
0.027700  20.300000
0.030000  20.600000
0.030700  20.300000
0.037500  20.500000
0.030700  20.200000
0.009000  20.200000
0.004500  20.200000
0.008200  20.200000
-0.006800  20.100000
-0.017300  20.100000
-0.016500  20.000000
-0.021800  19.800000
-0.030000  20.000000
-0.024800  19.700000
-0.012800  20.000000
-0.010500  19.500000
-0.004600  19.800000
-0.001500  19.500000
0.005200  19.700000
0.012000  19.500000
0.006000  19.400000
0.013500  19.300000
0.030700  19.300000
0.024700  19.200000
0.001500  19.200000
-0.011300  19.300000
-0.024000  18.900000
-0.022500  19.200000
-0.014300  18.800000
-0.023300  19.200000
-0.020300  18.600000
-0.008300  18.800000
-0.000800  18.700000
-0.004600  18.500000
-0.012800  18.600000
-0.021800  18.300000
-0.034600  18.600000
-0.042800  18.400000
-0.042800  18.400000
-0.029300  18.200000
0.004500  18.200000
0.027000  18.000000
0.045700  18.200000
0.059200  18.000000
0.061500  17.800000
0.065200  17.900000
0.045700  17.700000
0.026200  18.000000
0.027700  17.500000
0.034500  17.900000
0.030700  17.300000
0.008200  17.800000
-0.003000  17.300000
-0.001500  17.400000
-0.004600  17.300000
-0.007500  17.100000
-0.014300  17.100000
-0.021800  17.300000
-0.023300  16.800000
-0.027000  17.000000
-0.032300  16.700000
-0.038300  16.700000
-0.031500  16.700000
-0.014300  16.600000
0.008200  16.600000
0.019500  16.400000
0.012700  16.400000
0.025500  16.400000
0.027700  16.200000
0.007500  16.300000
0.000000  16.200000
-0.002300  16.200000
-0.003800  16.200000
-0.005300  16.000000
-0.003000  15.800000
-0.007500  16.100000
-0.018100  15.500000
-0.027000  16.000000
-0.044300  15.300000
-0.054000  15.800000
-0.048000  15.500000
-0.028500  15.600000
0.010500  15.300000
0.044200  15.200000
0.043500  15.300000
0.047200  15.400000
0.046500  15.200000
0.031500  15.200000
0.023200  15.000000
0.012000  14.800000
0.004500  15.100000
0.002200  14.600000
-0.004600  15.000000
-0.012800  14.600000
-0.015800  14.600000
-0.020300  14.600000
-0.033800  14.300000
-0.047300  14.600000
-0.069100  14.100000
-0.066000  14.400000
-0.027000  14.100000
0.009000  14.300000
0.035200  14.100000
0.040500  14.100000
0.040500  13.800000
0.052500  14.000000
0.067500  13.800000
0.072000  13.700000
0.033700  13.800000
0.006700  13.600000
-0.001500  13.900000
-0.006000  13.500000
-0.015800  13.700000
-0.044300  13.200000
-0.048800  13.500000
-0.033000  13.100000
-0.018100  13.100000
-0.027800  13.100000
-0.036800  13.100000
-0.031500  12.900000
-0.024800  13.000000
0.001500  12.800000
0.020200  12.700000
0.019500  12.800000
0.025500  12.700000
0.031500  12.700000
0.024000  12.500000
0.033000  12.600000
0.045700  12.500000
0.036000  12.400000
0.015700  12.500000
-0.004600  12.100000
-0.005300  12.600000
-0.004600  12.200000
-0.003800  12.000000
0.000700  12.200000
-0.000800  12.100000
-0.012000  11.700000
-0.041300  12.200000
-0.061500  11.600000
-0.058500  12.000000
-0.048800  11.700000
-0.050300  11.800000
-0.050300  11.600000
-0.027000  11.600000
0.011200  11.900000
0.051700  11.300000
0.072700  11.600000
0.066700  11.300000
0.078700  11.400000
0.082500  11.400000
0.057000  11.200000
0.042000  11.000000
0.021700  11.400000
-0.003000  10.800000
-0.011300  11.100000
-0.015800  10.800000
-0.018800  10.800000
-0.020300  10.700000
-0.025600  10.700000
-0.045000  10.700000
-0.069100  10.400000
-0.067500  10.800000
-0.046500  10.300000
-0.058500  10.700000
-0.069100  10.400000
-0.037500  10.400000
-0.001500  10.500000
0.029200  10.500000
0.017200  10.200000
0.007500  10.400000
0.057700  10.300000
0.057000  10.200000
0.042700  10.200000
0.060700  10.000000
0.049500  10.300000
0.035200  9.900000
0.027000  10.100000
0.029200  9.700000
0.041200  10.000000
0.041200  9.800000
0.012700  9.700000
-0.008300  9.700000
-0.008300  9.600000
-0.016500  9.400000
-0.021000  9.700000
-0.033000  9.400000
-0.049500  9.400000
-0.053300  9.400000
-0.051800  9.200000
-0.055500  9.400000
-0.066800  9.000000
-0.037500  9.300000
0.029200  9.000000
0.057700  9.200000
0.053200  9.100000
0.044200  9.000000
0.032200  8.900000
0.015000  8.800000
0.002200  8.900000
0.006700  9.000000
0.008200  8.800000
0.004500  8.800000
-0.008300  8.800000
-0.014300  8.500000
-0.010500  8.700000
-0.012000  8.400000
-0.008300  8.800000
-0.008300  8.500000
-0.010500  8.600000
-0.016500  8.300000
-0.031500  8.500000
-0.044300  8.400000
-0.055500  8.300000
-0.075800  8.400000
-0.084800  8.400000
-0.071300  8.300000
-0.052500  8.100000
0.018000  8.400000
0.081700  7.900000
0.083200  8.400000
0.085500  7.900000
0.072700  8.100000
0.069000  8.000000
0.070500  7.900000
0.048000  8.100000
0.044200  7.600000
0.038200  8.100000
0.009700  7.600000
-0.012000  7.800000
-0.015000  7.700000
-0.033000  7.700000
-0.067500  7.500000
-0.099000  7.700000
-0.087800  7.500000
-0.057000  7.400000
-0.040500  7.600000
-0.027000  7.300000
-0.035300  7.600000
-0.033000  7.200000
0.012000  7.800000
0.078000  7.300000
0.111700  7.500000
0.087700  7.200000
0.064500  7.200000
0.065200  7.300000
0.067500  7.300000
0.074200  7.200000
0.046500  7.400000
0.009000  7.100000
-0.011300  7.100000
-0.029300  7.200000
-0.029300  6.900000
-0.030800  7.200000
-0.033000  7.000000
-0.047300  7.100000
-0.074300  7.100000
-0.097500  7.000000
-0.105800  7.200000
-0.074300  6.800000
-0.021800  7.000000
0.001500  6.800000
-0.041300  6.800000
-0.084000  6.900000
-0.081800  7.100000
-0.035300  6.700000
0.049500  7.300000
0.115500  6.600000
0.126700  7.100000
0.096700  6.700000
0.083200  6.900000
0.107200  6.800000
0.131200  6.700000
0.105000  6.900000
0.044200  6.700000
0.004500  6.800000
-0.010500  6.700000
-0.008300  6.600000
-0.021800  6.700000
-0.032300  6.500000
-0.038300  6.300000
-0.042800  6.800000
-0.050300  6.400000
-0.084000  6.600000
-0.128300  6.600000
-0.127500  6.400000
-0.075000  6.600000
-0.012000  6.200000
0.057700  6.700000
0.081700  6.300000
0.080200  6.500000
0.080200  6.300000
0.067500  6.300000
0.081700  6.300000
0.054000  6.400000
0.005200  6.400000
-0.018100  6.200000
-0.027800  6.300000
-0.026300  6.000000
-0.027000  6.400000
-0.025600  5.900000
-0.027800  6.200000
-0.036800  5.900000
-0.055500  6.000000
-0.083300  6.100000
-0.114000  5.900000
-0.131300  6.100000
-0.127500  5.800000
-0.082500  5.900000
-0.008300  5.900000
0.040500  6.000000
0.089200  6.000000
0.124500  6.000000
0.145500  5.800000
0.177700  5.900000
0.145500  5.700000
0.064500  5.700000
0.034500  5.700000
0.006000  5.600000
-0.018100  5.800000
-0.017300  5.600000
-0.027000  5.900000
-0.021800  5.300000
-0.023300  5.700000
-0.029300  5.600000
-0.034600  5.500000
-0.050300  5.600000
-0.077300  5.600000
-0.091500  5.300000
-0.069100  5.600000
-0.066800  5.400000
-0.072800  5.400000
-0.069100  5.400000
-0.075800  5.200000
-0.009800  5.600000
0.093000  5.200000
0.074200  5.300000
-0.018800  5.300000
-0.072100  5.300000
-0.005300  5.400000
0.075000  5.300000
0.071200  5.300000
0.063000  5.100000
0.037500  5.200000
0.018000  5.000000
-0.011300  5.300000
0.011200  5.000000
0.048700  5.300000
0.034500  5.000000
0.062200  5.500000
0.031500  4.900000
0.024700  5.300000
0.067500  5.100000
0.082500  5.100000
0.096000  5.100000
0.078700  4.900000
0.037500  5.100000
0.002200  5.000000
0.000700  5.000000
0.000000  5.000000
0.020200  5.300000
0.003700  4.800000
-0.007500  5.300000
-0.000800  4.900000
-0.029300  5.100000
-0.032300  5.100000
-0.054000  4.800000
-0.065300  5.100000
-0.115500  4.700000
-0.243800  5.100000
-0.324800  4.600000
-0.273000  5.000000
-0.125300  5.000000
-0.043600  4.900000
-0.062300  4.900000
-0.053300  5.000000
0.030000  4.800000
0.156700  4.600000
0.242200  5.000000
0.187500  4.500000
0.140200  4.900000
0.195000  4.500000
0.246000  5.000000
0.264700  4.500000
0.185200  4.700000
0.069000  4.500000
0.025500  4.700000
-0.008300  4.700000
-0.030000  4.600000
-0.033800  4.600000
-0.041300  4.600000
-0.052500  4.500000
-0.063000  4.500000
-0.060800  4.700000
-0.063000  4.400000
-0.063000  4.600000
-0.071300  4.300000
-0.109500  4.500000
-0.161300  4.400000
-0.196500  4.300000
-0.145500  4.500000
-0.048800  4.100000
-0.003800  4.600000
0.027000  4.300000
0.054000  4.400000
0.070500  4.400000
0.093000  4.400000
0.111700  4.500000
0.106500  4.400000
0.044200  4.000000
-0.005300  4.500000
-0.009100  4.000000
-0.020300  4.500000
-0.030800  4.100000
-0.059300  4.300000
-0.104300  4.200000
-0.131300  4.200000
-0.161300  4.100000
-0.173300  4.100000
-0.125300  4.500000
-0.041300  4.100000
0.020200  4.000000
0.067500  4.100000
0.123000  4.300000
0.127500  4.000000
0.141700  4.300000
0.185200  3.900000
0.177700  4.300000
0.141700  4.000000
0.105700  4.100000
0.078000  4.000000
0.040500  4.000000
-0.000800  4.200000
-0.018800  3.900000
-0.031500  4.100000
-0.040500  3.800000
-0.050300  4.100000
-0.063800  4.200000
-0.082500  4.100000
-0.087800  4.000000
-0.073500  4.200000
-0.051800  3.900000
-0.036800  4.100000
-0.041300  4.000000
-0.075000  4.000000
-0.135800  4.000000
-0.117000  3.900000
-0.026300  4.000000
0.039000  3.900000
0.087700  4.100000
0.096000  3.800000
0.091500  4.000000
0.076500  4.000000
0.100500  4.000000
0.143200  4.100000
0.064500  4.100000
0.003000  3.600000
-0.004600  4.000000
-0.020300  3.800000
-0.018100  3.900000
-0.051100  3.800000
-0.122300  3.900000
-0.154500  4.000000
-0.095300  3.600000
-0.071300  3.900000
-0.105800  3.600000
-0.096800  3.900000
-0.065300  3.800000
-0.007500  3.800000
0.093700  3.700000
0.126700  3.700000
0.129000  3.600000
0.159700  3.900000
0.172500  3.700000
0.158200  3.700000
0.093000  3.800000
0.059200  3.700000
0.035200  3.800000
0.003000  3.500000
-0.008300  4.100000
-0.038300  3.600000
-0.071300  4.000000
-0.078800  3.500000
-0.039000  3.900000
-0.006800  3.700000
-0.005300  3.700000
-0.015800  3.900000
-0.078800  3.600000
-0.181500  3.900000
-0.195000  3.600000
-0.101300  4.000000
-0.055500  3.600000
0.009700  3.900000
0.096700  3.600000
0.104200  3.900000
0.132700  3.800000
0.139500  3.700000
0.117700  3.900000
0.092200  3.700000
0.049500  3.900000
-0.010500  3.800000
-0.050300  3.900000
-0.012800  3.700000
-0.003000  3.900000
-0.018100  3.700000
-0.010500  3.900000
-0.008300  3.600000
-0.012800  3.900000
-0.029300  3.800000
-0.039000  3.800000
-0.044300  3.900000
-0.063000  3.600000
-0.066800  3.900000
-0.054000  3.500000
-0.049500  3.900000
-0.041300  3.700000
-0.018100  3.800000
-0.010500  3.800000
0.000700  3.700000
0.030700  3.600000
0.034500  4.000000
0.018700  3.600000
0.026200  3.700000
0.044200  3.700000
0.033000  3.600000
0.010500  3.800000
-0.017300  3.500000
-0.039800  3.700000
-0.031500  3.600000
-0.019500  3.700000
-0.016500  3.600000
-0.014300  3.500000
-0.008300  3.600000
0.006700  3.700000
0.021700  3.600000
0.035200  3.700000
0.019500  3.700000
0.003700  3.500000
0.023200  3.800000
0.019500  3.300000
-0.000800  3.900000
-0.019500  3.300000
-0.025600  4.000000
0.005200  3.500000
0.021700  3.600000
0.014200  3.500000
0.006000  3.600000
0.003000  3.600000
0.006700  3.400000
0.009000  3.400000
0.036000  3.500000
0.036000  3.700000
0.006000  3.300000
0.006700  3.700000
-0.004600  3.500000
-0.006800  3.700000
-0.012000  3.600000
-0.049500  3.500000
-0.085600  3.700000
-0.128300  3.300000
-0.147800  3.900000
-0.080300  3.300000
0.015000  3.900000
0.066000  3.600000
0.057700  3.600000
0.029200  3.600000
0.063000  3.600000
0.089200  3.600000
0.097500  3.600000
0.087000  3.700000
0.038200  3.400000
0.037500  4.000000
0.057700  3.500000
0.082500  4.000000
0.060700  3.400000
0.005200  3.800000
-0.007500  3.600000
-0.027800  3.700000
-0.031500  3.700000
-0.022500  3.600000
-0.024800  3.700000
-0.030800  3.600000
-0.046500  3.600000
-0.050300  3.700000
-0.061500  3.900000
-0.093800  3.600000
-0.093800  3.900000
-0.060800  3.600000
-0.029300  3.800000
0.013500  3.900000
0.059200  3.600000
0.090000  4.000000
0.088500  3.600000
0.081700  4.100000
0.060700  3.700000
0.004500  3.800000
-0.012000  3.900000
-0.005300  3.800000
-0.012000  3.800000
-0.014300  4.100000
-0.023300  3.500000
-0.024000  4.000000
-0.024800  3.800000
-0.030000  4.000000
-0.039800  3.900000
-0.055500  3.900000
-0.048800  4.100000
-0.033000  3.600000
-0.006000  4.000000
0.023200  3.700000
0.032200  4.000000
0.034500  4.100000
0.038200  3.800000
0.048000  4.000000
0.030000  4.000000
0.004500  3.900000
-0.004600  3.900000
-0.010500  4.000000
-0.008300  3.600000
-0.003800  4.200000
0.011200  3.600000
0.008200  4.100000
-0.021800  3.700000
-0.027000  4.100000
-0.007500  3.900000
0.006700  4.000000
0.016500  3.900000
0.009000  3.900000
0.000000  4.100000
0.003000  4.000000
0.010500  3.800000
0.005200  3.900000
-0.009100  4.200000
-0.002300  3.800000
0.001500  4.200000
0.000700  3.700000
0.004500  4.100000
-0.003000  3.800000
-0.013500  4.000000
-0.019500  4.000000
-0.009100  3.800000
-0.004600  4.100000
-0.002300  3.800000
0.009000  4.000000
0.012700  3.900000
0.009000  3.900000
-0.003000  4.000000
-0.000800  4.100000
-0.001500  3.900000
-0.019500  4.000000
-0.030800  4.000000
-0.044300  3.900000
-0.046500  4.100000
-0.024000  3.800000
0.003000  4.200000
0.025500  3.900000
0.034500  4.300000
0.047200  3.900000
0.061500  4.100000
0.038200  4.000000
0.013500  4.000000
0.015700  4.000000
0.025500  4.300000
0.029200  3.900000
0.029200  4.200000
0.027000  4.000000
0.005200  4.100000
-0.009100  4.100000
-0.019500  4.100000
-0.021800  4.300000
-0.021800  4.000000
-0.027000  4.100000
-0.021800  4.100000
-0.019500  4.200000
-0.015000  4.500000
-0.009800  4.300000
-0.004600  4.300000
0.000000  4.300000
-0.001500  4.200000
0.000700  4.300000
-0.000800  4.400000
-0.010500  4.100000
-0.023300  4.600000
-0.023300  4.100000
-0.015800  4.500000
-0.003800  4.300000
0.008200  4.500000
0.006700  4.400000
0.012000  4.500000
0.016500  4.500000
0.021700  4.300000
0.010500  4.500000
-0.005300  4.500000
-0.001500  4.500000
-0.015800  4.500000
-0.052500  4.800000
-0.082500  4.200000
-0.069100  4.700000
-0.027800  4.500000
-0.007500  4.600000
0.006700  4.600000
0.024000  4.600000
0.055500  4.700000
0.085500  4.400000
0.078000  5.000000
0.055500  4.500000
0.039700  4.700000
0.026200  4.600000
0.019500  4.600000
0.018000  4.700000
0.002200  4.700000
-0.008300  4.700000
-0.005300  4.500000
-0.006800  4.800000
-0.012000  4.700000
-0.017300  5.000000
-0.017300  4.500000
-0.020300  5.000000
-0.023300  4.600000
-0.020300  4.900000
-0.020300  4.700000
-0.018100  4.900000
-0.014300  4.900000
-0.009100  4.800000
-0.003800  5.000000
-0.001500  5.000000
0.003000  4.800000
0.005200  4.800000
0.000700  5.000000
-0.006800  4.800000
-0.015000  5.000000
-0.006800  4.900000
0.001500  4.900000
-0.006000  5.000000
-0.003000  4.900000
0.003000  5.200000
0.002200  4.900000
0.003700  5.200000
0.001500  4.800000
0.002200  5.000000
0.004500  5.000000
0.003000  5.000000
0.006700  4.900000
0.006700  5.300000
0.003000  4.800000
-0.009100  5.300000
-0.027800  4.900000
-0.015800  5.300000
0.013500  5.000000
0.023200  5.100000
0.012700  5.300000
0.008200  5.100000
0.012000  5.300000
0.014200  5.100000
0.009000  5.200000
-0.004600  5.300000
-0.008300  5.300000
-0.011300  5.300000
-0.010500  5.400000
-0.006000  5.000000
-0.007500  5.400000
-0.003800  5.200000
-0.002300  5.400000
0.002200  5.300000
0.007500  5.400000
0.008200  5.500000
0.006700  5.300000
0.005200  5.800000
0.008200  5.300000
0.009700  5.800000
0.009000  5.600000
0.007500  5.600000
0.004500  5.500000
-0.002300  5.700000
-0.008300  5.600000
-0.005300  5.800000
0.000700  5.600000
0.003000  5.800000
-0.001500  5.900000
0.009000  5.700000
0.009700  6.100000
-0.002300  5.600000
-0.009100  6.200000
-0.009800  5.900000
-0.005300  6.200000
-0.009800  6.000000
-0.008300  5.900000
-0.004600  6.200000
-0.003800  6.300000
0.000700  6.300000
0.000700  6.400000
0.001500  6.300000
-0.002300  6.300000
-0.012000  6.600000
-0.024800  6.500000
-0.021800  6.600000
-0.008300  6.400000
0.000700  6.700000
0.010500  6.700000
0.012000  6.700000
0.018000  7.000000
0.021700  6.700000
0.020200  7.000000
0.019500  7.100000
0.005200  6.700000
0.000000  7.000000
0.001500  7.200000
-0.006800  6.800000
-0.009100  7.300000
-0.008300  7.000000
-0.010500  7.400000
-0.015000  7.200000
-0.015800  7.300000
-0.009100  7.500000
-0.003000  7.200000
0.007500  7.500000
0.015700  7.400000
0.019500  7.600000
0.019500  7.700000
0.008200  7.600000
0.002200  7.700000
0.006700  7.700000
0.006700  7.700000
-0.002300  8.000000
-0.004600  8.000000
-0.005300  7.800000
-0.002300  8.200000
0.000700  7.900000
-0.003000  8.500000
-0.001500  8.000000
0.000700  8.400000
-0.003000  8.300000
-0.003000  8.300000
-0.002300  8.700000
-0.005300  8.500000
-0.009100  8.500000
-0.008300  8.500000
-0.004600  8.800000
-0.008300  8.400000
-0.018100  9.000000
-0.014300  8.700000
-0.009100  9.000000
-0.009100  9.000000
-0.003000  8.900000
0.003700  9.400000
0.005200  8.900000
0.002200  9.400000
0.000700  9.200000
0.000000  9.600000
0.003000  9.400000
0.009000  9.500000
0.012000  9.500000
0.012700  9.900000
0.012000  9.500000
0.010500  9.500000
0.009000  9.900000
0.005200  9.500000
0.006000  10.100000
0.001500  9.600000
-0.004600  10.100000
-0.004600  9.900000
-0.006800  9.900000
-0.004600  10.100000
-0.001500  9.900000
0.000700  10.400000
0.004500  10.000000
0.004500  10.300000
0.000700  10.300000
-0.001500  10.300000
-0.004600  10.400000
-0.005300  10.500000
-0.004600  10.500000
-0.006000  10.500000
-0.006800  10.700000
-0.005300  10.400000
-0.002300  10.900000
0.000000  10.500000
0.000000  11.100000
-0.000800  10.500000
0.001500  10.800000
-0.000800  10.800000
-0.003000  10.800000
-0.005300  11.100000
-0.001500  11.200000
0.006700  11.100000
0.008200  11.200000
0.009700  11.400000
0.015700  11.200000
0.014200  11.600000
0.009000  11.200000
0.004500  11.500000
0.006000  11.600000
0.004500  11.400000
-0.000800  11.800000
-0.000800  11.600000
-0.001500  12.000000
-0.001500  11.700000
-0.003000  12.200000
-0.003000  12.200000
-0.002300  12.200000
-0.003000  12.300000
-0.004600  12.500000
-0.004600  12.400000
-0.003000  12.800000
-0.005300  12.700000
-0.014300  12.800000
-0.022500  12.900000
-0.021000  13.000000
-0.010500  13.300000
0.005200  13.200000
0.021000  13.500000
0.024000  13.500000
0.019500  13.500000
0.017200  13.900000
0.014200  13.800000
0.012000  14.000000
0.003000  14.000000
-0.007500  14.000000
-0.010500  14.300000
-0.010500  14.500000
-0.007500  14.300000
-0.007500  14.800000
-0.007500  14.400000
-0.004600  14.900000
-0.002300  14.800000
-0.003800  14.900000
-0.005300  15.200000
-0.003000  15.000000
-0.000800  15.300000
0.000700  15.100000
-0.000800  15.400000
0.000700  15.500000
0.001500  15.600000
0.001500  15.500000
0.003000  16.000000
0.002200  15.900000
0.001500  15.800000
0.001500  16.100000
0.001500  15.900000
0.003000  16.500000
0.004500  16.000000
0.006700  16.500000
0.003000  16.300000
0.000000  16.600000
-0.000800  16.500000
-0.003000  16.400000
0.000700  16.600000
-0.000800  16.900000
-0.000800  16.800000
0.000700  16.900000
0.000000  17.200000
0.001500  16.900000
-0.000800  17.500000
-0.001500  17.100000
-0.003000  17.500000
-0.005300  17.500000
-0.003800  17.300000
-0.005300  17.700000
-0.006000  17.500000
-0.004600  17.900000
-0.005300  17.500000
-0.001500  17.800000
0.000700  17.900000
0.004500  17.800000
0.004500  17.900000
0.000700  18.000000
-0.000800  18.000000
-0.000800  17.900000
0.000700  18.400000
0.001500  18.100000
0.004500  18.400000
0.007500  18.100000
0.008200  18.500000
0.008200  18.500000
0.006000  18.400000
0.005200  18.700000
0.003000  18.300000
0.000000  18.700000
-0.004600  18.700000
-0.001500  18.900000
0.000700  18.900000
0.000700  19.100000
0.003000  19.000000
0.000700  19.100000
0.003000  19.300000
0.004500  19.200000
0.003000  19.300000
0.004500  19.200000
0.004500  19.800000
0.003000  19.400000
-0.000800  19.800000
-0.001500  19.700000
-0.001500  20.000000
-0.001500  20.100000
-0.001500  20.100000
-0.003000  20.100000
-0.002300  20.100000
-0.000800  20.300000
-0.004600  20.200000
-0.005300  20.600000
-0.003000  20.300000
-0.003000  20.600000
-0.001500  20.700000
-0.003800  20.700000
-0.001500  21.100000
0.001500  20.800000
0.001500  21.300000
0.003000  20.800000
0.004500  21.500000
0.006700  21.300000
0.003700  21.500000
0.002200  21.700000
0.004500  21.700000
0.001500  21.500000
-0.002300  22.100000
-0.006800  21.900000
-0.007500  22.100000
-0.005300  22.200000
-0.004600  22.300000
-0.004600  22.500000
-0.005300  22.400000
-0.003000  22.800000
-0.001500  22.700000
-0.001500  22.800000
-0.000800  23.100000
-0.001500  22.900000
0.000000  23.200000
0.000700  23.400000
-0.003000  23.400000
-0.003000  23.500000
-0.001500  23.800000
-0.000800  23.600000
-0.001500  24.100000
-0.005300  23.600000
-0.006800  24.200000
-0.006800  24.200000
-0.004600  24.300000
-0.001500  24.600000
-0.000800  24.400000
0.000700  24.900000
0.003000  24.700000
0.005200  24.800000
0.006700  25.000000
0.005200  25.100000
0.002200  25.200000
0.000000  25.500000
-0.001500  25.300000
-0.006800  25.600000
-0.002300  25.700000
0.002200  25.700000
0.003000  26.100000
0.005200  25.800000
0.005200  26.400000
0.004500  26.000000
0.001500  26.500000
-0.001500  26.200000
-0.003000  26.600000
-0.000800  26.700000
0.001500  26.700000
0.000700  26.800000
-0.001500  27.000000
-0.001500  27.400000
0.000700  27.000000
0.002200  27.500000
0.004500  27.200000
0.006700  27.700000
0.006700  27.500000
0.005200  27.800000
0.004500  28.000000
0.004500  27.600000
0.003000  28.100000
0.000700  27.900000
-0.000800  28.300000
-0.003800  28.200000
-0.003000  28.300000
-0.000800  28.400000
0.000700  28.600000
0.000700  28.400000
-0.000800  28.700000
0.002200  28.700000
0.004500  28.700000
0.003000  29.000000
0.002200  28.700000
0.004500  29.100000
0.004500  28.900000
0.003000  29.300000
0.002200  29.000000
-0.001500  29.300000
-0.008300  29.400000
-0.009100  29.400000
-0.003800  29.500000
0.000700  29.600000
-0.000800  29.600000
-0.002300  29.600000
-0.003800  29.900000
-0.001500  29.700000
-0.000800  30.000000
0.003700  29.900000
0.001500  30.000000
-0.001500  30.200000
0.000700  30.100000
-0.001500  30.400000
-0.003000  30.100000
-0.002300  30.600000
-0.001500  30.400000
-0.000800  30.300000
-0.001500  30.700000
-0.000800  30.700000
0.000700  30.700000
0.000700  30.900000
0.003700  30.900000
0.005200  30.800000
0.006700  31.000000
0.006700  31.000000
0.005200  31.400000
0.004500  31.100000
0.002200  31.400000
0.000000  31.400000
-0.004600  31.500000
-0.006800  31.800000
-0.004600  31.500000
-0.003000  31.900000
-0.004600  31.900000
-0.003000  31.900000
-0.000800  32.100000
-0.001500  32.500000
-0.000800  32.200000
-0.000800  32.500000
0.000700  32.300000
0.001500  32.600000
0.002200  32.800000
0.003000  32.800000
0.001500  33.100000
-0.000800  32.900000
-0.001500  33.200000
-0.004600  33.300000
-0.009100  33.300000
-0.011300  33.400000
-0.012800  33.500000
-0.011300  33.700000
-0.006800  33.900000
-0.004600  33.900000
-0.003000  33.800000
-0.001500  34.200000
0.000700  33.900000
0.004500  34.500000
0.006000  34.100000
0.007500  34.600000
0.008200  34.500000
0.005200  34.800000
0.002200  34.900000
-0.002300  34.800000
-0.005300  35.200000
-0.006000  35.200000
-0.012000  35.300000
-0.019500  35.400000
-0.016500  35.500000
-0.006800  35.300000
0.005200  35.900000
0.014200  35.500000
0.014200  36.000000
0.015700  36.000000
0.018000  36.100000
0.016500  36.300000
0.016500  36.000000
0.018000  36.700000
0.024000  36.300000
0.020200  36.700000
0.009700  36.500000
0.003000  36.800000
-0.001500  36.900000
-0.005300  36.900000
-0.009100  36.800000
-0.012000  37.200000
-0.010500  37.300000
-0.010500  37.100000
-0.008300  37.700000
-0.006800  37.300000
-0.006800  37.800000
-0.003000  37.500000
-0.002300  37.900000
-0.004600  37.600000
-0.003000  38.000000
-0.000800  38.000000
-0.003000  38.000000
-0.005300  38.200000
-0.006000  38.200000
-0.008300  38.300000
-0.009100  38.700000
-0.008300  38.700000
-0.006800  38.600000
-0.005300  38.900000
-0.004600  38.700000
-0.003000  39.100000
-0.001500  39.000000
-0.002300  39.100000
-0.000800  39.300000
0.001500  39.100000
-0.000800  39.600000
-0.002300  39.200000
-0.001500  39.600000
0.001500  39.600000
0.004500  39.800000
0.002200  39.800000
0.001500  39.900000
0.001500  39.900000
0.001500  40.300000
0.003000  39.900000
0.003000  40.400000
0.003000  40.100000
0.000000  40.500000
-0.000800  40.400000
-0.003800  40.600000
-0.006800  40.600000
-0.005300  40.600000
-0.000800  40.900000
0.000700  40.800000
0.001500  40.800000
0.003700  40.900000
0.005200  40.900000
0.006000  40.900000
0.004500  41.300000
0.005200  40.900000
0.006700  41.400000
0.008200  41.100000
0.008200  41.400000
0.006700  41.400000
0.003000  41.400000
0.000000  41.700000
-0.001500  41.300000
-0.001500  41.800000
-0.002300  41.400000
-0.001500  41.800000
-0.000800  41.800000
0.000700  41.900000
-0.001500  41.900000
-0.003000  42.100000
-0.003800  42.000000
-0.003000  41.900000
-0.001500  42.300000
-0.001500  42.000000
-0.000800  42.300000
-0.001500  42.100000
-0.004600  42.500000
-0.006000  42.300000
-0.005300  42.700000
-0.004600  42.500000
0.000700  42.800000
0.003700  42.900000
0.004500  42.900000
0.008200  42.900000
0.009000  43.000000
0.008200  43.000000
0.004500  43.200000
0.002200  43.300000
0.000000  43.300000
-0.003000  43.700000
-0.001500  43.500000
-0.003000  43.600000
-0.001500  43.800000
0.000700  43.900000
0.003700  44.100000
0.003700  43.800000
0.002200  44.300000
0.004500  44.300000
0.003000  44.300000
0.001500  44.600000
-0.000800  44.600000
-0.001500  44.500000
-0.000800  45.100000
0.000700  44.600000
0.000700  45.200000
-0.000800  45.000000
-0.000800  45.300000
0.000700  45.300000
0.002200  45.200000
0.002200  45.500000
0.003000  45.500000
0.000000  45.800000
-0.001500  45.600000
-0.002300  45.800000
-0.003000  45.900000
-0.003000  45.900000
-0.005300  46.100000
-0.004600  46.300000
-0.002300  46.300000
-0.000800  46.300000
0.001500  46.600000
-0.000800  46.500000
-0.000800  47.000000
0.005200  46.400000
0.003700  47.000000
0.003700  46.800000
0.001500  47.100000
-0.003800  47.000000
-0.005300  47.000000
-0.004600  47.300000
-0.004600  47.300000
-0.008300  47.500000
-0.011300  47.500000
-0.010500  47.700000
-0.011300  47.400000
-0.007500  47.800000
-0.005300  47.600000
-0.005300  48.100000
-0.003000  47.800000
-0.000800  48.100000
0.000700  48.200000
0.005200  48.100000
0.008200  48.400000
0.006700  48.100000
0.005200  48.600000
0.006700  48.400000
0.009000  48.500000
0.011200  48.500000
0.012000  48.600000
0.010500  48.500000
0.010500  48.800000
0.008200  48.700000
0.003000  48.800000
-0.000800  49.000000
-0.003000  48.900000
-0.004600  49.300000
-0.006800  48.900000
-0.007500  49.500000
-0.006800  49.100000
-0.006800  49.300000
-0.006800  49.200000
-0.008300  49.300000
-0.006800  49.400000
-0.004600  49.500000
-0.001500  49.400000
0.001500  49.700000
0.004500  49.600000
0.006000  49.600000
0.006000  49.800000
0.005200  49.500000
0.002200  50.000000
-0.000800  49.800000
-0.003000  50.000000
-0.003800  50.000000
-0.001500  50.100000
0.000000  50.300000
-0.002300  50.100000
-0.003000  50.400000
-0.003000  50.400000
-0.004600  50.300000
-0.002300  50.500000
-0.001500  50.800000
-0.001500  50.400000
0.003000  51.000000
0.006000  50.700000
0.005200  51.100000
0.002200  51.000000
0.003000  51.000000
0.003700  51.300000
0.000700  51.200000
-0.001500  51.500000
-0.003000  51.400000
-0.001500  51.700000
-0.003800  51.600000
-0.005300  51.800000
-0.004600  51.800000
-0.006800  52.000000
-0.010500  51.900000
-0.012800  52.200000
-0.009100  52.300000
-0.006000  52.400000
-0.002300  52.600000
0.001500  52.400000
0.003000  53.000000
0.009000  52.600000
0.008200  53.100000
0.005200  53.100000
0.003700  53.300000
0.005200  53.400000
0.006000  53.500000
0.004500  53.600000
0.005200  53.700000
0.005200  53.800000
0.005200  53.800000
0.006000  54.400000
0.006700  53.900000
0.006700  54.400000
0.006700  54.300000
0.006700  54.600000
0.008200  54.700000
0.006000  54.600000
0.003000  55.100000
0.003000  54.700000
0.002200  55.300000
0.002200  55.000000
-0.000800  55.300000
-0.004600  55.400000
-0.005300  55.500000
-0.004600  55.500000
-0.005300  55.800000
-0.008300  55.700000
-0.006800  55.800000
-0.004600  56.200000
-0.003000  55.800000
-0.002300  56.300000
-0.003000  56.000000
-0.001500  56.600000
0.000000  56.200000
0.004500  56.500000
0.004500  56.500000
0.004500  56.600000
0.003700  56.600000
-0.000800  56.800000
-0.004600  56.800000
-0.002300  57.000000
0.001500  57.000000
0.001500  57.100000
0.004500  57.300000
0.006700  57.100000
0.009000  57.400000
0.009700  57.400000
0.006700  57.500000
0.006700  57.600000
0.006000  57.500000
0.001500  57.900000
-0.002300  57.600000
-0.004600  58.100000
-0.002300  58.000000
-0.000800  58.100000
-0.001500  58.200000
-0.003000  58.300000
-0.003000  58.000000
-0.004600  58.500000
-0.003000  58.200000
-0.001500  58.600000
-0.003000  58.500000
-0.005300  58.500000
-0.006800  58.700000
-0.006000  58.500000
-0.007500  59.000000
-0.006000  58.900000
-0.003000  58.900000
0.000700  59.100000
0.001500  59.100000
0.000000  59.100000
0.002200  59.200000
0.003000  59.200000
0.000700  59.200000
0.000700  59.400000
0.000700  59.300000
0.000000  59.600000
0.000000  59.300000
0.000700  59.700000
0.001500  59.400000
0.000700  59.700000
-0.000800  59.700000
-0.001500  59.800000
-0.000800  59.800000
-0.001500  59.500000
-0.001500  59.800000
-0.003000  60.000000
-0.002300  60.200000
-0.000800  60.000000
0.000700  60.400000
0.000700  60.000000
-0.002300  60.400000
-0.000800  60.200000
-0.000800  60.300000
0.000000  60.400000
-0.000800  60.300000
-0.001500  60.700000
-0.003000  60.300000
-0.005300  60.800000
-0.003800  60.500000
-0.003000  61.000000
-0.003000  60.900000
-0.000800  60.900000
-0.000800  61.000000
0.001500  61.200000
0.000000  61.300000
-0.000800  61.300000
0.000700  61.400000
-0.001500  61.400000
-0.000800  61.700000
0.000700  61.300000
0.003000  61.900000
0.003000  61.600000
0.003000  62.200000
0.003700  61.800000
0.002200  62.200000
0.002200  62.100000
0.003000  62.200000
0.005200  62.300000
0.006000  62.400000
0.005200  62.200000
0.003700  62.600000
0.003700  62.600000
0.003000  62.600000
-0.001500  62.700000
-0.000800  62.800000
-0.000800  63.100000
-0.000800  62.800000
-0.000800  63.200000
0.002200  63.100000
0.006700  63.100000
0.004500  63.400000
0.003000  63.400000
-0.000800  63.500000
-0.001500  63.400000
0.000000  63.600000
0.003000  63.700000
0.004500  63.800000
0.003700  63.700000
0.002200  64.000000
0.001500  63.700000
0.003000  64.300000
-0.000800  64.000000
-0.002300  64.300000
-0.003000  64.300000
-0.006800  64.200000
-0.008300  64.400000
-0.009800  64.300000
-0.013500  64.400000
-0.014300  64.500000
-0.012000  64.600000
-0.008300  64.700000
-0.004600  64.900000
-0.003000  64.500000
0.000000  65.100000
0.003000  64.800000
0.005200  65.100000
0.009000  65.000000
0.011200  65.200000
0.009000  65.400000
0.003000  65.200000
-0.000800  65.700000
-0.000800  65.200000
-0.003800  65.700000
-0.003000  65.600000
-0.004600  65.700000
-0.003800  65.700000
-0.000800  65.700000
0.000000  65.900000
-0.001500  65.900000
-0.005300  66.200000
-0.006000  66.000000
-0.009100  66.500000
-0.008300  66.000000
-0.006800  66.600000
-0.005300  66.200000
-0.003800  66.600000
0.000700  66.500000
0.006700  66.600000
0.009700  66.600000
0.012700  66.600000
0.012700  66.900000
0.012700  66.800000
0.012700  66.900000
0.010500  67.000000
0.009700  67.200000
0.006000  67.000000
0.000700  67.500000
-0.001500  67.100000
-0.004600  67.500000
-0.003800  67.500000
-0.003000  67.500000
-0.001500  67.700000
-0.002300  67.500000
-0.003000  67.700000
-0.003000  67.500000
-0.004600  67.700000
-0.005300  67.800000
-0.003800  67.800000
-0.003000  67.900000
-0.001500  68.200000
-0.000800  67.700000
-0.002300  68.200000
-0.004600  68.000000
-0.002300  68.100000
0.000700  68.300000
0.003000  68.100000
0.003700  68.400000
0.007500  68.400000
0.009000  68.500000
0.006700  68.500000
0.005200  68.400000
0.000000  68.600000
-0.000800  68.700000
-0.001500  68.600000
-0.002300  68.700000
-0.001500  68.600000
-0.001500  68.800000
-0.001500  69.100000
-0.001500  68.600000
-0.000800  69.200000
0.000700  68.800000
0.003000  69.200000
0.003700  68.900000
0.003000  69.100000
0.001500  69.300000
-0.001500  69.100000
-0.001500  69.300000
-0.001500  69.500000
-0.001500  69.300000
-0.000800  69.300000
-0.003000  69.400000
-0.006000  69.500000
-0.004600  69.600000
-0.002300  69.500000
-0.001500  69.600000
-0.001500  69.800000
-0.002300  69.700000
-0.002300  70.000000
-0.005300  69.500000
-0.007500  70.100000
-0.008300  69.800000
-0.009100  70.100000
-0.008300  70.000000
-0.009100  70.100000
-0.010500  70.200000
-0.012000  70.100000
-0.012000  70.200000
-0.006000  70.300000
0.000000  70.400000
0.004500  70.200000
0.012000  70.600000
0.010500  70.100000
0.009000  70.600000
0.009000  70.300000
0.006700  70.500000
0.007500  70.500000
0.004500  70.400000
0.003700  70.700000
0.005200  70.400000
0.004500  70.600000
0.005200  70.800000
0.003000  70.800000
0.003000  70.800000
0.000700  71.100000
0.002200  70.900000
0.001500  71.000000
0.000700  71.200000
0.004500  71.100000
0.003000  71.500000
0.003700  71.200000
0.004500  71.500000
0.008200  71.100000
0.010500  71.600000
0.008200  71.500000
0.008200  71.600000
0.006000  71.700000
0.002200  71.800000
-0.001500  71.700000
-0.004600  71.800000
-0.006000  71.800000
-0.007500  72.000000
-0.006000  72.000000
-0.002300  71.900000
-0.003000  72.200000
0.001500  72.100000
0.003700  72.400000
0.002200  72.400000
0.001500  72.300000
0.000000  72.500000
0.000700  72.400000
-0.001500  72.800000
0.000000  72.500000
0.001500  72.500000
0.000000  72.700000
-0.001500  72.600000
-0.003000  72.600000
-0.004600  73.300000
-0.004600  72.700000
-0.008300  73.200000
-0.009100  72.900000
-0.007500  73.200000
-0.008300  73.000000
-0.005300  73.100000
-0.003000  73.400000
-0.001500  73.300000
-0.001500  73.400000
-0.002300  73.300000
-0.003000  73.600000
-0.002300  73.700000
-0.002300  73.700000
-0.003000  73.600000
0.000700  74.000000
0.003000  73.700000
0.004500  74.000000
0.005200  73.800000
0.003700  73.800000
0.006000  74.100000
0.005200  73.800000
0.005200  74.200000
0.004500  73.900000
0.003000  74.200000
0.003000  74.100000
-0.001500  74.200000
-0.001500  74.200000
0.000700  74.300000
0.001500  74.500000
0.000700  74.300000
0.000700  74.500000
0.000000  74.300000
0.001500  74.700000
0.003700  74.200000
0.000000  74.700000
-0.003000  74.500000
-0.003000  74.700000
-0.005300  74.700000
-0.005300  74.600000
-0.003000  74.900000
-0.003800  74.400000
-0.004600  75.000000
-0.002300  74.700000
-0.001500  74.700000
0.000000  74.800000
0.001500  75.000000
0.001500  74.700000
0.001500  74.800000
0.000700  74.900000
0.000000  75.000000
-0.000800  75.000000
-0.003000  74.900000
-0.006000  75.200000
-0.005300  74.800000
-0.005300  75.300000
-0.004600  74.900000
-0.003000  75.400000
0.000000  75.100000
0.003000  75.100000
0.005200  75.200000
0.009000  75.200000
0.012700  75.000000
0.012700  75.400000
0.012700  75.200000
0.013500  75.300000
0.009000  75.400000
0.001500  75.300000
0.000700  75.600000
0.001500  75.300000
0.000000  75.600000
-0.002300  75.500000
-0.006800  75.600000
-0.004600  75.700000
0.000000  75.500000
-0.000800  75.700000
-0.002300  75.700000
-0.005300  75.600000
-0.007500  75.600000
-0.007500  76.000000
-0.009100  75.600000
-0.010500  76.100000
-0.009800  75.600000
-0.008300  76.000000
-0.004600  75.900000
-0.000800  75.900000
0.001500  76.100000
0.006700  75.900000
0.008200  76.100000
0.008200  75.900000
0.008200  76.000000
0.008200  76.000000
0.005200  76.200000
0.003000  76.100000
0.001500  76.300000
-0.003000  76.200000
-0.003000  76.300000
-0.005300  76.500000
-0.007500  76.100000
-0.006800  76.700000
-0.006800  76.200000
-0.004600  76.600000
-0.003800  76.300000
-0.003000  76.500000
-0.001500  76.500000
-0.000800  76.500000
0.001500  76.700000
0.000700  76.500000
0.001500  76.600000
0.003000  76.500000
0.003000  76.700000
0.004500  76.400000
0.003700  76.800000
0.004500  76.400000
0.009000  76.700000
0.009000  76.500000
0.007500  76.500000
0.006700  76.700000
0.003000  76.500000
0.003700  76.900000
0.002200  76.500000
0.002200  77.000000
0.005200  76.800000
0.002200  76.800000
-0.000800  76.800000
-0.001500  76.900000
-0.003000  76.700000
-0.001500  77.000000
0.001500  77.100000
0.000700  77.000000
-0.003000  77.200000
-0.003000  76.800000
-0.005300  77.500000
-0.003800  76.800000
-0.003800  77.500000
-0.003000  77.100000
-0.000800  77.300000
0.000000  77.200000
0.001500  77.200000
0.001500  77.300000
0.001500  77.400000
-0.001500  77.400000
-0.001500  77.600000
0.000000  77.500000
0.000000  77.300000
-0.000800  77.600000
-0.000800  77.400000
0.000000  77.600000
-0.000800  77.500000
-0.003000  77.500000
-0.002300  77.700000
-0.000800  77.500000
0.000000  77.800000
0.001500  77.300000
0.003700  77.800000
0.003000  77.700000
0.002200  77.600000
0.003000  77.600000
0.000000  77.900000
-0.003000  77.500000
-0.003800  77.900000
-0.006000  77.500000
-0.009800  77.800000
-0.015800  77.500000
-0.015000  77.600000
-0.015800  77.800000
-0.014300  77.500000
-0.009100  77.700000
-0.004600  77.700000
0.001500  77.700000
0.005200  77.700000
0.010500  77.600000
0.012700  77.600000
0.015700  77.700000
0.018000  77.600000
0.014200  77.600000
0.010500  77.500000
0.009000  77.500000
0.006000  77.700000
0.001500  77.400000
-0.004600  77.800000
-0.003000  77.300000
-0.004600  77.800000
-0.006800  77.400000
-0.007500  77.700000
-0.007500  77.600000
-0.003800  77.300000
-0.003800  77.400000
-0.003800  77.600000
-0.002300  77.600000
-0.001500  77.200000
-0.002300  77.800000
-0.004600  77.300000
-0.005300  77.500000
-0.005300  77.300000
-0.003000  77.500000
-0.003000  77.300000
-0.003000  77.300000
-0.001500  77.500000
-0.001500  77.100000
-0.004600  77.600000
-0.003000  77.000000
0.000700  77.300000
0.003700  77.300000
0.006700  77.300000
0.006700  77.300000
0.006700  77.300000
0.005200  77.200000
0.003000  77.100000
0.002200  77.200000
0.000700  77.000000
0.000700  77.300000
0.001500  76.900000
0.003000  77.300000
0.003000  76.800000
0.001500  77.300000
0.000700  76.900000
-0.000800  77.000000
0.000700  77.100000
0.003000  76.900000
0.001500  77.100000
0.001500  76.900000
0.002200  76.800000
0.003000  76.600000
0.001500  76.800000
0.001500  76.600000
0.004500  76.700000
0.004500  76.700000
0.002200  76.800000
-0.000800  76.900000
-0.005300  76.700000
-0.003800  76.900000
-0.003000  76.500000
-0.004600  76.900000
-0.003800  76.800000
-0.001500  76.800000
-0.001500  76.700000
-0.002300  76.600000
-0.002300  76.500000
-0.003800  76.900000
-0.003000  76.500000
-0.001500  76.900000
0.000700  76.500000
0.003700  76.700000
0.003700  76.500000
0.001500  76.500000
0.003000  76.600000
0.005200  76.400000
0.004500  76.700000
0.003700  76.500000
0.003000  76.500000
-0.001500  76.400000
-0.004600  76.500000
-0.007500  76.500000
-0.009100  76.700000
-0.010500  76.300000
-0.010500  76.500000
-0.007500  76.400000
-0.008300  76.300000
-0.008300  76.700000
-0.006800  76.400000
-0.004600  76.700000
0.000700  76.300000
0.001500  76.700000
0.000700  76.300000
0.003000  76.400000
0.000700  76.600000
-0.001500  76.500000
0.000000  76.500000
0.002200  76.600000
0.003700  76.600000
0.003000  76.500000
0.008200  76.700000
0.012000  76.400000
0.012000  76.700000
0.009000  76.400000
0.004500  76.600000
0.002200  76.600000
-0.000800  76.700000
0.002200  76.600000
0.001500  76.500000
-0.001500  76.800000
0.001500  76.600000
0.003700  76.500000
0.003700  76.700000
0.003700  76.700000
0.001500  76.500000
0.000700  76.800000
0.002200  76.600000
0.002200  76.700000
0.002200  76.600000
0.000000  76.500000
-0.000800  76.800000
-0.001500  76.500000
-0.000800  77.000000
0.000000  76.500000
-0.001500  76.900000
-0.001500  76.500000
-0.002300  76.600000
-0.001500  76.700000
-0.004600  76.700000
-0.004600  76.500000
-0.000800  76.700000
-0.002300  76.500000
-0.002300  76.600000
-0.000800  76.800000
-0.002300  76.500000
-0.002300  76.800000
-0.001500  76.500000
-0.000800  76.600000
-0.000800  76.600000
-0.000800  76.400000
-0.001500  76.700000
-0.001500  76.400000
0.001500  76.700000
-0.000800  76.500000
-0.003000  76.500000
-0.000800  76.600000
-0.001500  76.700000
-0.000800  76.300000
0.003000  76.800000
0.003700  76.400000
0.006700  76.700000
0.007500  76.500000
0.005200  76.500000
0.005200  76.500000
0.005200  76.300000
0.008200  76.600000
0.005200  76.500000
0.000700  76.400000
0.000000  76.700000
-0.001500  76.500000
-0.001500  76.500000
-0.000800  76.800000
0.000700  76.500000
-0.003000  76.700000
-0.006800  76.600000
-0.008300  76.500000
-0.006000  76.700000
-0.006800  76.500000
-0.009100  76.800000
-0.008300  76.300000
-0.008300  76.800000
-0.006800  76.600000
-0.008300  76.700000
-0.006800  76.800000
-0.004600  76.600000
-0.002300  76.600000
0.000700  76.600000
0.002200  76.800000
0.001500  76.500000
0.003000  76.900000
0.003000  76.500000
0.005200  77.000000
0.006700  76.600000
0.006000  77.000000
0.007500  76.700000
0.007500  76.800000
0.007500  76.900000
0.006000  76.700000
0.005200  77.200000
0.002200  76.700000
0.002200  76.900000
0.004500  76.900000
0.005200  76.900000
0.006700  76.900000
0.004500  77.100000
0.004500  76.700000
0.004500  77.000000
0.002200  76.900000
0.000700  76.800000
-0.000800  77.100000
-0.002300  76.800000
-0.005300  77.100000
-0.006800  76.700000
-0.005300  77.300000
-0.005300  76.900000
-0.005300  77.000000
-0.003800  77.000000
-0.003800  77.000000
-0.004600  77.000000
-0.003800  77.200000
-0.001500  76.900000
0.000700  77.000000
0.000700  77.100000
-0.000800  76.900000
0.000700  77.200000
0.001500  76.700000
0.000000  77.000000
-0.002300  77.000000
-0.003800  77.000000
-0.004600  77.000000
-0.004600  76.900000
-0.001500  77.000000
0.000700  77.000000
0.002200  77.000000
0.003000  77.000000
0.006700  77.000000
0.008200  76.900000
0.008200  77.200000
0.008200  76.700000
0.006700  77.200000
0.005200  76.600000
0.001500  77.000000
-0.000800  76.900000
0.000000  76.900000
-0.001500  76.900000
-0.003000  76.800000
-0.006000  77.000000
-0.008300  76.800000
-0.008300  76.900000
-0.006800  76.900000
-0.005300  76.900000
-0.006800  76.700000
-0.005300  77.100000
-0.003000  76.700000
-0.001500  77.000000
0.001500  76.900000
0.003000  76.700000
0.002200  77.000000
0.003000  76.600000
0.004500  77.000000
0.006000  76.500000
0.006000  77.000000
0.006000  76.700000
0.006000  76.700000
0.003000  76.700000
0.000000  76.800000
-0.001500  76.700000
-0.001500  76.800000
-0.000800  76.900000
-0.002300  76.500000
-0.003000  77.000000
-0.003000  76.500000
-0.005300  76.900000
-0.006800  76.500000
-0.004600  76.700000
-0.004600  76.700000
-0.004600  76.500000
-0.005300  76.900000
-0.004600  76.500000
0.000000  76.600000
0.001500  76.600000
0.001500  76.600000
-0.000800  76.700000
0.001500  76.700000
0.004500  76.500000
0.001500  76.600000
0.003000  76.700000
0.001500  76.500000
0.003700  76.900000
0.007500  76.500000
0.006700  76.800000
0.006700  76.400000
0.005200  76.700000
0.005200  76.500000
0.006000  76.600000
0.006700  76.600000
0.004500  76.600000
0.000700  76.700000
-0.000800  76.700000
-0.003000  76.700000
-0.001500  76.600000
-0.001500  76.800000
-0.001500  76.500000
-0.003000  76.800000
-0.004600  76.700000
-0.003800  76.600000
-0.002300  76.500000
0.000700  76.600000
0.003000  76.800000
0.003000  76.500000
0.002200  76.900000
0.001500  76.800000
0.000700  76.700000
-0.003000  76.700000
0.000000  76.700000
0.000700  76.500000
-0.001500  76.900000
0.000000  76.600000
0.000700  76.900000
-0.002300  76.700000
-0.003000  76.700000
0.001500  76.900000
0.000700  76.700000
-0.000800  76.900000
0.000000  76.700000
0.000700  76.900000
-0.001500  76.900000
-0.004600  76.800000
-0.006000  76.900000
-0.008300  76.900000
-0.009100  76.800000
-0.009100  76.900000
-0.008300  76.800000
-0.005300  76.900000
-0.003800  77.000000
-0.004600  76.700000
-0.002300  77.100000
-0.000800  76.700000
-0.000800  77.200000
0.002200  76.700000
0.006000  77.100000
0.006700  76.800000
0.006700  76.900000
0.003000  76.900000
0.003700  76.900000
0.006000  76.900000
0.006700  76.900000
0.008200  77.100000
0.007500  76.900000
0.004500  77.200000
0.004500  76.700000
0.003700  77.000000
0.000700  76.800000
0.002200  77.100000
0.003700  77.000000
0.001500  76.800000
0.000700  77.200000
0.003000  76.900000
0.003000  77.200000
0.003000  77.000000
0.001500  77.000000
0.001500  77.000000
-0.000800  76.900000
-0.002300  76.900000
-0.002300  77.100000
-0.001500  77.000000
-0.003000  77.000000
-0.005300  77.000000
-0.008300  76.900000
-0.010500  77.200000
-0.009800  76.800000
-0.006000  77.300000
-0.001500  76.700000
0.000700  77.300000
0.002200  76.900000
0.001500  77.100000
0.000700  77.000000
-0.001500  76.900000
-0.002300  76.900000
0.000700  77.000000
0.004500  77.000000
0.004500  76.900000
0.004500  77.000000
0.003000  76.800000
0.001500  77.000000
0.000700  76.900000
0.000000  76.800000
-0.001500  77.000000
-0.000800  76.900000
0.001500  77.100000
0.003700  76.700000
0.004500  77.000000
0.002200  76.900000
-0.001500  76.900000
-0.003800  76.900000
-0.005300  77.200000
-0.008300  76.700000
-0.007500  77.000000
-0.003800  76.800000
0.001500  76.900000
0.004500  77.000000
0.004500  76.900000
0.000700  77.000000
-0.002300  76.700000
-0.003000  77.000000
-0.003000  76.900000
0.000700  76.800000
0.003000  76.900000
0.004500  76.900000
0.004500  76.700000
0.002200  77.000000
0.003000  77.000000
0.003000  76.700000
0.005200  77.100000
0.008200  76.600000
0.006700  77.000000
0.006000  76.700000
0.002200  77.000000
0.002200  76.900000
0.001500  76.800000
-0.000800  76.900000
-0.000800  76.900000
0.001500  77.000000
0.004500  76.900000
0.004500  77.000000
0.002200  76.900000
-0.002300  77.000000
-0.004600  76.700000
-0.003000  77.000000
-0.002300  76.900000
-0.004600  76.900000
-0.004600  76.900000
-0.003000  76.800000
-0.003000  77.100000
-0.001500  76.700000
-0.003000  77.100000
-0.005300  76.700000
-0.005300  77.100000
-0.006800  77.000000
-0.009100  77.000000
-0.012000  76.900000
-0.012000  76.900000
-0.008300  77.000000
-0.006800  76.900000
-0.005300  77.200000
-0.005300  76.700000
-0.006000  77.200000
-0.005300  76.700000
-0.002300  77.100000
0.001500  76.700000
0.002200  77.000000
0.002200  77.000000
0.003000  76.900000
0.007500  77.000000
0.008200  76.900000
0.006000  76.900000
0.005200  77.000000
0.004500  76.900000
0.004500  76.900000
0.002200  77.000000
0.000000  76.900000
-0.000800  77.000000
-0.003000  76.900000
-0.005300  76.800000
-0.005300  76.900000
-0.004600  76.900000
-0.002300  77.000000
-0.003000  76.700000
-0.003800  77.100000
-0.001500  76.600000
0.003000  77.000000
0.004500  76.900000
0.004500  76.900000
0.004500  76.900000
0.003000  77.100000
0.003000  76.700000
0.003000  77.200000
0.003700  76.800000
0.004500  76.900000
0.000700  77.000000
-0.000800  76.800000
-0.000800  77.100000
-0.000800  76.700000
-0.000800  77.000000
0.001500  76.900000
0.003000  76.900000
0.003000  77.100000
0.003700  77.000000
0.005200  77.000000
0.007500  76.900000
0.009000  76.700000
0.009700  76.900000
0.009000  76.900000
0.008200  76.900000
0.008200  77.100000
0.008200  76.700000
0.008200  77.000000
0.004500  76.900000
0.001500  77.000000
-0.000800  76.800000
-0.002300  77.000000
-0.001500  77.100000
-0.003000  77.000000
-0.003000  76.900000
0.000000  77.000000
0.000700  76.900000
-0.000800  76.800000
-0.001500  77.200000
-0.003000  76.800000
-0.002300  77.100000
-0.001500  76.800000
-0.002300  77.000000
-0.001500  77.000000
-0.001500  76.900000
-0.000800  77.100000
-0.001500  76.700000
-0.000800  77.100000
-0.001500  76.700000
-0.003800  77.100000
-0.002300  76.900000
-0.003800  77.000000
-0.004600  76.900000
-0.005300  77.100000
-0.004600  76.900000
-0.006800  77.000000
-0.009100  77.100000
-0.008300  76.700000
-0.006800  77.200000
-0.005300  76.800000
-0.003000  77.300000
-0.003800  76.900000
-0.004600  77.100000
-0.004600  76.900000
-0.002300  77.000000
0.000000  77.000000
0.000700  76.900000
0.000700  76.900000
0.001500  76.900000
0.000700  77.100000
-0.001500  76.900000
-0.001500  77.200000
0.000700  76.800000
0.002200  77.100000
0.004500  76.900000
0.000700  77.000000
-0.003000  77.000000
-0.003000  76.900000
-0.002300  77.100000
-0.003800  76.700000
-0.004600  77.200000
-0.003000  76.800000
-0.001500  76.900000
0.001500  77.100000
0.004500  77.100000
0.006700  76.500000
0.007500  77.200000
0.007500  76.900000
0.008200  77.000000
0.008200  77.000000
0.007500  76.900000
0.005200  77.100000
0.005200  76.800000
0.005200  77.100000
0.004500  76.900000
0.001500  76.900000
0.000700  77.000000
0.000700  76.900000
-0.001500  77.000000
-0.004600  77.000000
-0.005300  76.900000
-0.003800  76.900000
-0.003000  77.000000
-0.002300  76.700000
-0.002300  77.200000
-0.003800  76.700000
-0.005300  77.000000
-0.003000  76.800000
-0.003000  77.000000
-0.003000  76.900000
0.000000  76.900000
-0.001500  77.100000
0.001500  76.800000
0.002200  76.900000
0.001500  76.900000
0.003000  76.900000
0.001500  77.000000
0.000700  77.300000
0.000000  76.800000
-0.003800  77.100000
-0.003800  76.800000
-0.001500  77.000000
0.002200  77.000000
0.003000  76.900000
0.003000  77.000000
0.003000  76.700000
0.003000  77.300000
0.004500  76.700000
0.002200  77.200000
0.001500  76.900000
-0.000800  76.900000
-0.000800  77.000000
-0.000800  77.000000
-0.002300  76.900000
-0.003000  76.900000
-0.002300  77.000000
-0.000800  76.700000
0.003000  77.200000
0.003000  76.600000
0.000700  77.100000
0.000700  76.700000
0.000000  77.000000
0.000700  76.700000
-0.001500  76.900000
-0.002300  76.900000
-0.001500  77.000000
-0.003000  76.800000
-0.003800  76.900000
-0.005300  76.800000
-0.003000  76.900000
-0.000800  76.900000
-0.000800  76.800000
0.000000  77.100000
-0.000800  76.700000
0.000700  77.000000
-0.000800  76.900000
-0.003000  76.900000
-0.002300  77.100000
-0.000800  76.600000
0.000000  77.000000
0.000700  76.800000
0.001500  76.900000
0.000000  76.800000
0.003000  76.800000
0.006700  76.800000
0.006700  77.200000
0.004500  76.500000
0.003000  77.000000
0.002200  76.700000
0.002200  76.900000
0.005200  76.900000
0.005200  76.700000
0.004500  77.000000
0.005200  76.800000
0.004500  76.900000
0.004500  76.800000
0.006700  76.600000
0.005200  76.700000
0.000000  76.800000
-0.003000  76.800000
-0.003000  76.900000
-0.004600  76.900000
-0.005300  76.800000
-0.004600  77.000000
-0.003000  76.700000
-0.001500  77.200000
-0.003800  76.700000
-0.003800  77.000000
-0.000800  76.700000
0.001500  76.900000
0.003700  76.800000
0.001500  76.700000
-0.003000  77.000000
-0.005300  76.800000
-0.005300  76.700000
-0.006800  76.900000
-0.008300  77.100000
-0.009100  76.700000
-0.008300  77.100000
-0.006000  76.500000
-0.003800  76.900000
-0.003800  76.800000
-0.001500  76.800000
0.004500  76.900000
0.009700  76.600000
0.012700  77.100000
0.012700  76.600000
0.012700  77.000000
0.012000  76.700000
0.008200  76.900000
0.005200  77.000000
0.003700  76.900000
0.002200  76.700000
0.001500  76.800000
0.001500  77.000000
0.001500  76.800000
-0.000800  77.000000
-0.002300  76.700000
-0.003000  77.100000
-0.003800  76.700000
-0.004600  77.000000
-0.006000  76.700000
-0.008300  76.800000
-0.008300  76.900000
-0.008300  76.600000
-0.006800  76.800000
-0.006800  76.800000
-0.005300  76.900000
-0.003000  76.700000
-0.001500  76.900000
0.003000  76.700000
0.005200  76.900000
0.009000  76.700000
0.010500  76.800000
0.009700  76.900000
0.009000  76.700000
0.005200  77.100000
0.001500  76.600000
-0.000800  77.000000
-0.003000  76.700000
-0.005300  76.800000
-0.003000  76.900000
0.000700  76.900000
0.000000  76.700000
-0.000800  77.000000
-0.002300  76.600000
-0.005300  77.000000
-0.006800  76.700000
-0.008300  76.900000
-0.009800  77.000000
-0.009100  76.700000
-0.005300  77.000000
-0.002300  76.700000
0.000700  76.700000
0.001500  76.900000
0.003700  76.700000
0.006700  76.900000
0.006700  76.800000
0.006000  76.700000
0.005200  76.900000
0.003000  76.800000
0.002200  76.700000
0.003000  77.000000
0.002200  76.500000
-0.002300  77.100000
-0.004600  76.500000
-0.005300  77.000000
-0.004600  76.700000
-0.004600  76.900000
-0.008300  76.700000
-0.010500  76.900000
-0.006000  77.000000
-0.003000  76.700000
-0.001500  77.000000
0.000700  76.900000
-0.001500  76.900000
-0.003000  76.700000
-0.005300  77.000000
-0.002300  76.600000
0.003000  77.100000
0.006000  76.700000
0.007500  76.900000
0.006700  76.800000
0.005200  76.900000
0.004500  76.800000
0.003700  76.700000
0.004500  77.000000
0.007500  76.600000
0.006000  76.900000
0.003700  76.800000
0.002200  76.900000
0.000700  76.900000
0.000000  76.900000
-0.003800  76.700000
-0.006000  76.700000
-0.010500  77.000000
-0.013500  76.900000
-0.012000  77.100000
-0.008300  76.600000
-0.006800  77.000000
-0.004600  76.600000
0.000700  76.900000
0.004500  76.700000
0.007500  76.700000
0.011200  76.900000
0.015000  76.800000
0.016500  76.900000
0.016500  76.800000
0.013500  76.800000
0.009700  76.800000
0.005200  76.900000
0.000700  76.700000
-0.000800  77.000000
-0.002300  76.700000
-0.003000  76.900000
-0.003800  76.900000
-0.003000  76.700000
-0.004600  76.800000
-0.004600  76.700000
-0.008300  77.000000
-0.013500  76.700000
-0.013500  76.800000
-0.012800  76.700000
-0.012000  76.700000
-0.009100  76.500000
-0.004600  77.100000
0.000700  76.600000
0.003000  76.900000
0.008200  76.700000
0.012700  76.700000
0.012000  76.900000
0.012700  76.700000
0.010500  76.800000
0.008200  76.600000
0.005200  76.900000
0.004500  76.700000
0.002200  76.700000
-0.002300  76.900000
-0.003800  76.900000
-0.004600  76.700000
-0.004600  76.700000
-0.004600  76.800000
-0.004600  76.900000
-0.004600  76.700000
-0.008300  76.600000
-0.010500  76.900000
-0.012000  76.500000
-0.012000  77.100000
-0.009800  76.500000
-0.009100  77.000000
-0.005300  76.500000
-0.001500  76.800000
0.003000  76.700000
0.009700  76.600000
0.012700  76.700000
0.015000  76.800000
0.015700  76.700000
0.015700  76.500000
0.015000  77.000000
0.012000  76.500000
0.008200  77.000000
0.005200  76.500000
0.003700  76.600000
0.004500  76.700000
0.004500  76.700000
0.003700  76.900000
0.003700  76.500000
0.004500  76.900000
0.003000  76.800000
-0.003000  76.900000
-0.008300  76.600000
-0.013500  76.700000
-0.014300  76.500000
-0.010500  76.800000
-0.009100  76.500000
-0.006000  76.700000
-0.003000  76.700000
-0.004600  76.600000
-0.000800  76.800000
0.001500  76.500000
0.003000  76.900000
0.005200  76.500000
0.003000  76.800000
0.000700  76.500000
-0.002300  76.800000
-0.001500  76.700000
-0.002300  76.700000
-0.005300  76.700000
-0.004600  76.900000
-0.001500  76.700000
-0.003000  76.700000
-0.001500  76.800000
-0.002300  76.500000
-0.003800  77.000000
-0.003000  76.500000
-0.003800  76.900000
-0.001500  76.800000
0.000700  76.700000
0.000000  76.700000
0.000700  76.700000
0.002200  76.800000
0.001500  76.800000
0.003000  76.700000
0.001500  77.000000
0.003000  76.900000
0.006000  76.700000
0.003700  77.000000
0.002200  76.600000
-0.001500  77.000000
-0.003800  76.700000
-0.005300  77.000000
-0.004600  76.800000
-0.003800  77.000000
-0.004600  76.700000
-0.002300  76.900000
